[Header]
Application Name	LabSolutions
Version	5.81 SP1
Data File Name	C:\LabSolutions\Data\Shangwen\20170529__Assay2+ADP_003.lcd
Output Date	5/29/2017
Output Time	3:31:40 PM

[File Information]
Type	Data File
Generated	5/29/2017 11:58:34 AM
Generated by	System Administrator
Modified	5/29/2017 12:08:58 PM
Modified by	System Administrator

[Sample Information]
Operator Name	System Administrator
Acquired	5/29/2017 11:58:56 AM
Sample Type	0:Unknown
Level	0
Sample Name	Assay2+ADP
Sample ID	003
ISTD Amount1	1
ISTD Amount2	1
ISTD Amount3	1
ISTD Amount4	1
ISTD Amount5	1
ISTD Amount6	1
ISTD Amount7	1
ISTD Amount8	1
ISTD Amount9	1
ISTD Amount10	1
ISTD Amount11	1
ISTD Amount12	1
ISTD Amount13	1
ISTD Amount14	1
ISTD Amount15	1
ISTD Amount16	1
ISTD Amount17	1
ISTD Amount18	1
ISTD Amount19	1
ISTD Amount20	1
ISTD Amount21	1
ISTD Amount22	1
ISTD Amount23	1
ISTD Amount24	1
ISTD Amount25	1
ISTD Amount26	1
ISTD Amount27	1
ISTD Amount28	1
ISTD Amount29	1
ISTD Amount30	1
ISTD Amount31	1
ISTD Amount32	1
Sample Amount	1
Dilution Factor	1
Vial#	98
Injection Volume	5

[Original Files]
Data File	C:\LabSolutions\Data\Shangwen\20170529__Assay2+ADP_003.lcd
Method File	C:\LabSolutions\Data\Shangwen\20170524_ATPAMP.lcm
Batch File	C:\LabSolutions\Data\Shangwen\20170524_batch2.lcb
Report Format File	c:\LabSolutions\System\DEFAULT.lsr

[File Description]


[Configuration]
Instrument Name	NAIR-HPLC-Instrument1
Instrument #	1
Line #	1
# of Detectors	2
Detector ID	Detector A	AD2
Detector Name	Detector A	ELSD
# of Channels	1	1

[Peak Table(Detector A)]
# of Peaks	8
Peak#	R.Time	I.Time	F.Time	Area	Height	A/H	Conc.	Mark	ID#	Name	k'	Plate #	Plate Ht.	Tailing	Resolution	Sep.Factor	Area Ratio	Height Ratio	Conc. %	Norm Conc.
1	1.802	1.383	2.392	231072	16597	13.923	0.000	   			0.000	375	400.019	1.101	0.000	0.000	0	0	0.000	0.000
2	3.170	2.858	3.283	12208	1201	10.167	0.000	   			0.759	1604	93.490	0.000	3.970	0.000	0	0	0.000	0.000
3	3.497	3.283	3.683	177015	21422	8.263	0.000	 V 			0.940	4332	34.626	0.000	1.238	1.240	0	0	0.000	0.000
4	3.812	3.683	4.050	5946659	826120	7.198	0.000	 V 			1.115	5873	25.539	1.583	1.532	1.186	0	0	0.000	0.000
5	4.175	4.050	5.258	20671898	2873360	7.194	0.000	SV 			1.317	7579	19.792	1.456	1.856	1.180	0	0	0.000	0.000
6	4.804	4.658	5.042	819803	113775	7.205	0.000	T  			1.665	9111	16.464	1.147	3.199	1.265	0	0	0.000	0.000
7	5.497	5.258	8.100	6975111	840281	8.301	0.000	SV 			2.050	9693	15.475	1.231	3.262	1.231	0	0	0.000	0.000
8	6.831	6.658	7.283	4312	206	20.912	0.000	T  			2.790	3034	49.445	1.652	3.710	1.361	0	0	0.000	0.000

[Peak Table(AD2)]
# of Peaks	0

[Compound Results(Detector A)]
# of IDs	0

[Compound Results(AD2)]
# of IDs	0

[Group Results(Detector A)]
# of Groups	0

[Group Results(AD2)]
# of Groups	0

[LC Chromatogram(Detector A-Ch1)]
Interval(msec)	500
# of Points	1201
Start Time(min)	0.000
End Time(min)	10.000
Intensity Units	mV
Intensity Multiplier	0.001
Wavelength(nm)	260nm
R.Time (min)	Intensity
0.00000	-35
0.00833	-35
0.01667	-0
0.02500	-1
0.03333	-1
0.04167	-1
0.05000	-1
0.05833	-0
0.06667	-0
0.07500	-1
0.08333	-2
0.09167	-1
0.10000	-1
0.10833	-1
0.11667	-2
0.12500	-3
0.13333	-3
0.14167	-3
0.15000	-4
0.15833	-4
0.16667	-5
0.17500	-5
0.18333	-5
0.19167	-5
0.20000	-6
0.20833	-7
0.21667	-7
0.22500	-8
0.23333	-9
0.24167	-9
0.25000	-8
0.25833	-8
0.26667	-8
0.27500	-8
0.28333	-9
0.29167	-11
0.30000	-11
0.30833	-12
0.31667	-13
0.32500	-13
0.33333	-13
0.34167	-14
0.35000	-14
0.35833	-15
0.36667	-14
0.37500	-14
0.38333	-15
0.39167	-17
0.40000	-17
0.40833	-16
0.41667	-14
0.42500	-13
0.43333	-14
0.44167	-15
0.45000	-15
0.45833	-15
0.46667	-14
0.47500	-13
0.48333	-14
0.49167	-13
0.50000	-14
0.50833	-15
0.51667	-16
0.52500	-16
0.53333	-16
0.54167	-16
0.55000	-16
0.55833	-16
0.56667	-16
0.57500	-16
0.58333	-16
0.59167	-15
0.60000	-15
0.60833	-16
0.61667	-17
0.62500	-16
0.63333	-17
0.64167	-17
0.65000	-17
0.65833	-17
0.66667	-16
0.67500	-15
0.68333	-15
0.69167	-17
0.70000	-17
0.70833	-18
0.71667	-18
0.72500	-20
0.73333	-21
0.74167	-22
0.75000	-23
0.75833	-22
0.76667	-22
0.77500	-22
0.78333	-23
0.79167	-22
0.80000	-22
0.80833	-22
0.81667	-23
0.82500	-24
0.83333	-25
0.84167	-25
0.85000	-25
0.85833	-26
0.86667	-27
0.87500	-28
0.88333	-28
0.89167	-27
0.90000	-27
0.90833	-28
0.91667	-29
0.92500	-29
0.93333	-30
0.94167	-29
0.95000	-29
0.95833	-29
0.96667	-29
0.97500	-29
0.98333	-29
0.99167	-29
1.00000	-30
1.00833	-30
1.01667	-30
1.02500	-30
1.03333	-30
1.04167	-30
1.05000	-30
1.05833	-30
1.06667	-31
1.07500	-31
1.08333	-31
1.09167	-32
1.10000	-32
1.10833	-32
1.11667	-31
1.12500	-31
1.13333	-31
1.14167	-31
1.15000	-31
1.15833	-31
1.16667	-30
1.17500	-29
1.18333	-30
1.19167	-30
1.20000	-30
1.20833	-31
1.21667	-30
1.22500	-30
1.23333	-30
1.24167	-30
1.25000	-31
1.25833	-31
1.26667	-32
1.27500	-31
1.28333	-31
1.29167	-31
1.30000	-31
1.30833	-31
1.31667	-32
1.32500	-32
1.33333	-32
1.34167	-32
1.35000	-31
1.35833	-31
1.36667	-31
1.37500	-31
1.38333	-31
1.39167	-31
1.40000	-30
1.40833	-29
1.41667	-29
1.42500	-27
1.43333	-24
1.44167	-20
1.45000	-15
1.45833	-10
1.46667	-5
1.47500	2
1.48333	11
1.49167	23
1.50000	38
1.50833	56
1.51667	77
1.52500	104
1.53333	138
1.54167	181
1.55000	236
1.55833	304
1.56667	388
1.57500	495
1.58333	627
1.59167	790
1.60000	989
1.60833	1230
1.61667	1520
1.62500	1867
1.63333	2277
1.64167	2756
1.65000	3310
1.65833	3939
1.66667	4645
1.67500	5425
1.68333	6275
1.69167	7185
1.70000	8144
1.70833	9135
1.71667	10142
1.72500	11143
1.73333	12115
1.74167	13036
1.75000	13885
1.75833	14642
1.76667	15290
1.77500	15815
1.78333	16206
1.79167	16457
1.80000	16566
1.80833	16534
1.81667	16365
1.82500	16070
1.83333	15659
1.84167	15143
1.85000	14537
1.85833	13856
1.86667	13114
1.87500	12328
1.88333	11513
1.89167	10681
1.90000	9845
1.90833	9018
1.91667	8211
1.92500	7431
1.93333	6685
1.94167	5978
1.95000	5316
1.95833	4699
1.96667	4132
1.97500	3615
1.98333	3146
1.99167	2724
2.00000	2348
2.00833	2014
2.01667	1721
2.02500	1464
2.03333	1242
2.04167	1050
2.05000	885
2.05833	744
2.06667	624
2.07500	521
2.08333	434
2.09167	361
2.10000	299
2.10833	248
2.11667	206
2.12500	171
2.13333	142
2.14167	118
2.15000	95
2.15833	76
2.16667	62
2.17500	51
2.18333	41
2.19167	33
2.20000	26
2.20833	19
2.21667	13
2.22500	8
2.23333	4
2.24167	-0
2.25000	-3
2.25833	-6
2.26667	-8
2.27500	-11
2.28333	-14
2.29167	-16
2.30000	-18
2.30833	-19
2.31667	-21
2.32500	-21
2.33333	-23
2.34167	-24
2.35000	-24
2.35833	-25
2.36667	-26
2.37500	-28
2.38333	-29
2.39167	-29
2.40000	-28
2.40833	-28
2.41667	-29
2.42500	-30
2.43333	-31
2.44167	-32
2.45000	-32
2.45833	-33
2.46667	-34
2.47500	-34
2.48333	-35
2.49167	-35
2.50000	-35
2.50833	-36
2.51667	-36
2.52500	-37
2.53333	-37
2.54167	-37
2.55000	-36
2.55833	-37
2.56667	-37
2.57500	-37
2.58333	-38
2.59167	-39
2.60000	-39
2.60833	-39
2.61667	-39
2.62500	-39
2.63333	-39
2.64167	-39
2.65000	-38
2.65833	-38
2.66667	-38
2.67500	-39
2.68333	-40
2.69167	-40
2.70000	-40
2.70833	-40
2.71667	-41
2.72500	-41
2.73333	-41
2.74167	-41
2.75000	-42
2.75833	-43
2.76667	-43
2.77500	-43
2.78333	-43
2.79167	-43
2.80000	-44
2.80833	-44
2.81667	-44
2.82500	-44
2.83333	-43
2.84167	-43
2.85000	-44
2.85833	-44
2.86667	-43
2.87500	-42
2.88333	-39
2.89167	-35
2.90000	-29
2.90833	-20
2.91667	-8
2.92500	6
2.93333	22
2.94167	37
2.95000	52
2.95833	65
2.96667	78
2.97500	89
2.98333	100
2.99167	110
3.00000	121
3.00833	131
3.01667	141
3.02500	151
3.03333	162
3.04167	174
3.05000	187
3.05833	202
3.06667	220
3.07500	243
3.08333	275
3.09167	322
3.10000	389
3.10833	482
3.11667	601
3.12500	738
3.13333	875
3.14167	996
3.15000	1088
3.15833	1145
3.16667	1169
3.17500	1165
3.18333	1138
3.19167	1096
3.20000	1046
3.20833	995
3.21667	942
3.22500	893
3.23333	846
3.24167	803
3.25000	764
3.25833	728
3.26667	698
3.27500	676
3.28333	665
3.29167	668
3.30000	687
3.30833	718
3.31667	757
3.32500	796
3.33333	829
3.34167	855
3.35000	881
3.35833	924
3.36667	1011
3.37500	1178
3.38333	1462
3.39167	1893
3.40000	2492
3.40833	3287
3.41667	4325
3.42500	5667
3.43333	7371
3.44167	9444
3.45000	11819
3.45833	14339
3.46667	16777
3.47500	18884
3.48333	20439
3.49167	21296
3.50000	21404
3.50833	20818
3.51667	19673
3.52500	18137
3.53333	16382
3.54167	14559
3.55000	12780
3.55833	11120
3.56667	9628
3.57500	8324
3.58333	7212
3.59167	6281
3.60000	5509
3.60833	4873
3.61667	4344
3.62500	3902
3.63333	3529
3.64167	3211
3.65000	2935
3.65833	2695
3.66667	2487
3.67500	2314
3.68333	2194
3.69167	2213
3.70000	2655
3.70833	4326
3.71667	9116
3.72500	20670
3.73333	44688
3.74167	88138
3.75000	156965
3.75833	252858
3.76667	370760
3.77500	498812
3.78333	621216
3.79167	722691
3.80000	792435
3.80833	826113
3.81667	825609
3.82500	797234
3.83333	749339
3.84167	690110
3.85000	626018
3.85833	561181
3.86667	497649
3.87500	436272
3.88333	377590
3.89167	322350
3.90000	271511
3.90833	225984
3.91667	186365
3.92500	152800
3.93333	125019
3.94167	102458
3.95000	84401
3.95833	70095
3.96667	58840
3.97500	50029
3.98333	43160
3.99167	37826
4.00000	33694
4.00833	30485
4.01667	27962
4.02500	25933
4.03333	24279
4.04167	22991
4.05000	22300
4.05833	23006
4.06667	27298
4.07500	40439
4.08333	73381
4.09167	144933
4.10000	280324
4.10833	503210
4.11667	822678
4.12500	1222140
4.13333	1658443
4.14167	2075249
4.15000	2424173
4.15833	2677389
4.16667	2826257
4.17500	2873369
4.18333	2827059
4.19167	2700227
4.20000	2510129
4.20833	2276825
4.21667	2020440
4.22500	1758780
4.23333	1505826
4.24167	1271301
4.25000	1060959
4.25833	877289
4.26667	720368
4.27500	588665
4.28333	479721
4.29167	390659
4.30000	318524
4.30833	260515
4.31667	214105
4.32500	177095
4.33333	147619
4.34167	124130
4.35000	105369
4.35833	90325
4.36667	78195
4.37500	68348
4.38333	60291
4.39167	53639
4.40000	48099
4.40833	43440
4.41667	39487
4.42500	36102
4.43333	33178
4.44167	30632
4.45000	28399
4.45833	26427
4.46667	24675
4.47500	23111
4.48333	21705
4.49167	20439
4.50000	19291
4.50833	18247
4.51667	17295
4.52500	16423
4.53333	15622
4.54167	14885
4.55000	14205
4.55833	13575
4.56667	12992
4.57500	12451
4.58333	11945
4.59167	11475
4.60000	11039
4.60833	10632
4.61667	10258
4.62500	9918
4.63333	9621
4.64167	9380
4.65000	9219
4.65833	9177
4.66667	9322
4.67500	9758
4.68333	10638
4.69167	12169
4.70000	14612
4.70833	18268
4.71667	23438
4.72500	30373
4.73333	39201
4.74167	49853
4.75000	61998
4.75833	75025
4.76667	88066
4.77500	100100
4.78333	110094
4.79167	117175
4.80000	120764
4.80833	120660
4.81667	117047
4.82500	110433
4.83333	101540
4.84167	91187
4.85000	80164
4.85833	69157
4.86667	58694
4.87500	49135
4.88333	40682
4.89167	33407
4.90000	27287
4.90833	22238
4.91667	18141
4.92500	14860
4.93333	12263
4.94167	10229
4.95000	8648
4.95833	7423
4.96667	6476
4.97500	5744
4.98333	5178
4.99167	4737
5.00000	4392
5.00833	4116
5.01667	3892
5.02500	3707
5.03333	3550
5.04167	3417
5.05000	3299
5.05833	3197
5.06667	3106
5.07500	3024
5.08333	2947
5.09167	2876
5.10000	2810
5.10833	2749
5.11667	2693
5.12500	2641
5.13333	2591
5.14167	2543
5.15000	2497
5.15833	2453
5.16667	2411
5.17500	2370
5.18333	2330
5.19167	2291
5.20000	2254
5.20833	2218
5.21667	2185
5.22500	2153
5.23333	2125
5.24167	2101
5.25000	2084
5.25833	2076
5.26667	2079
5.27500	2099
5.28333	2140
5.29167	2212
5.30000	2326
5.30833	2503
5.31667	2779
5.32500	3217
5.33333	3928
5.34167	5108
5.35000	7091
5.35833	10427
5.36667	15976
5.37500	25012
5.38333	39279
5.39167	60968
5.40000	92523
5.40833	136224
5.41667	193611
5.42500	264823
5.43333	348105
5.44167	439662
5.45000	534000
5.45833	624657
5.46667	705170
5.47500	769986
5.48333	815151
5.49167	838638
5.50000	840341
5.50833	821814
5.51667	785843
5.52500	735991
5.53333	676147
5.54167	610158
5.55000	541544
5.55833	473309
5.56667	407842
5.57500	346888
5.58333	291579
5.59167	242504
5.60000	199811
5.60833	163311
5.61667	132580
5.62500	107055
5.63333	86105
5.64167	69085
5.65000	55381
5.65833	44434
5.66667	35746
5.67500	28885
5.68333	23487
5.69167	19253
5.70000	15934
5.70833	13333
5.71667	11292
5.72500	9684
5.73333	8410
5.74167	7395
5.75000	6579
5.75833	5918
5.76667	5377
5.77500	4930
5.78333	4556
5.79167	4238
5.80000	3966
5.80833	3729
5.81667	3522
5.82500	3340
5.83333	3179
5.84167	3035
5.85000	2906
5.85833	2791
5.86667	2689
5.87500	2600
5.88333	2521
5.89167	2454
5.90000	2397
5.90833	2348
5.91667	2304
5.92500	2265
5.93333	2229
5.94167	2193
5.95000	2157
5.95833	2117
5.96667	2073
5.97500	2025
5.98333	1975
5.99167	1921
6.00000	1866
6.00833	1809
6.01667	1753
6.02500	1698
6.03333	1644
6.04167	1596
6.05000	1550
6.05833	1508
6.06667	1468
6.07500	1430
6.08333	1395
6.09167	1362
6.10000	1332
6.10833	1305
6.11667	1278
6.12500	1253
6.13333	1230
6.14167	1207
6.15000	1185
6.15833	1164
6.16667	1144
6.17500	1125
6.18333	1106
6.19167	1088
6.20000	1070
6.20833	1053
6.21667	1037
6.22500	1022
6.23333	1007
6.24167	993
6.25000	979
6.25833	965
6.26667	951
6.27500	938
6.28333	925
6.29167	914
6.30000	902
6.30833	891
6.31667	880
6.32500	870
6.33333	860
6.34167	850
6.35000	841
6.35833	833
6.36667	825
6.37500	818
6.38333	810
6.39167	802
6.40000	796
6.40833	790
6.41667	785
6.42500	780
6.43333	777
6.44167	775
6.45000	774
6.45833	774
6.46667	775
6.47500	776
6.48333	777
6.49167	777
6.50000	776
6.50833	774
6.51667	772
6.52500	768
6.53333	764
6.54167	757
6.55000	748
6.55833	738
6.56667	728
6.57500	717
6.58333	705
6.59167	695
6.60000	685
6.60833	677
6.61667	669
6.62500	662
6.63333	657
6.64167	654
6.65000	652
6.65833	651
6.66667	653
6.67500	658
6.68333	663
6.69167	668
6.70000	675
6.70833	683
6.71667	692
6.72500	701
6.73333	710
6.74167	719
6.75000	729
6.75833	737
6.76667	744
6.77500	750
6.78333	755
6.79167	760
6.80000	763
6.80833	766
6.81667	767
6.82500	768
6.83333	768
6.84167	767
6.85000	766
6.85833	765
6.86667	764
6.87500	763
6.88333	762
6.89167	759
6.90000	756
6.90833	754
6.91667	750
6.92500	745
6.93333	739
6.94167	733
6.95000	726
6.95833	717
6.96667	708
6.97500	697
6.98333	686
6.99167	674
7.00000	661
7.00833	646
7.01667	633
7.02500	619
7.03333	604
7.04167	591
7.05000	578
7.05833	565
7.06667	552
7.07500	537
7.08333	522
7.09167	509
7.10000	497
7.10833	485
7.11667	473
7.12500	462
7.13333	451
7.14167	441
7.15000	432
7.15833	422
7.16667	413
7.17500	404
7.18333	395
7.19167	388
7.20000	381
7.20833	374
7.21667	368
7.22500	362
7.23333	356
7.24167	351
7.25000	347
7.25833	343
7.26667	338
7.27500	332
7.28333	327
7.29167	323
7.30000	319
7.30833	315
7.31667	312
7.32500	309
7.33333	305
7.34167	301
7.35000	297
7.35833	295
7.36667	293
7.37500	290
7.38333	288
7.39167	285
7.40000	282
7.40833	279
7.41667	277
7.42500	275
7.43333	272
7.44167	271
7.45000	269
7.45833	267
7.46667	264
7.47500	261
7.48333	259
7.49167	257
7.50000	256
7.50833	255
7.51667	254
7.52500	252
7.53333	251
7.54167	250
7.55000	247
7.55833	245
7.56667	244
7.57500	242
7.58333	240
7.59167	238
7.60000	237
7.60833	237
7.61667	235
7.62500	234
7.63333	233
7.64167	232
7.65000	230
7.65833	229
7.66667	227
7.67500	226
7.68333	225
7.69167	224
7.70000	222
7.70833	221
7.71667	219
7.72500	217
7.73333	214
7.74167	212
7.75000	211
7.75833	208
7.76667	207
7.77500	206
7.78333	205
7.79167	204
7.80000	203
7.80833	202
7.81667	199
7.82500	198
7.83333	197
7.84167	195
7.85000	194
7.85833	193
7.86667	192
7.87500	190
7.88333	188
7.89167	186
7.90000	184
7.90833	183
7.91667	182
7.92500	182
7.93333	181
7.94167	180
7.95000	179
7.95833	177
7.96667	177
7.97500	177
7.98333	177
7.99167	176
8.00000	174
8.00833	173
8.01667	171
8.02500	169
8.03333	167
8.04167	166
8.05000	166
8.05833	166
8.06667	165
8.07500	164
8.08333	163
8.09167	163
8.10000	163
8.10833	163
8.11667	163
8.12500	163
8.13333	162
8.14167	161
8.15000	160
8.15833	158
8.16667	158
8.17500	158
8.18333	158
8.19167	157
8.20000	156
8.20833	157
8.21667	157
8.22500	155
8.23333	153
8.24167	151
8.25000	150
8.25833	148
8.26667	147
8.27500	146
8.28333	145
8.29167	144
8.30000	141
8.30833	140
8.31667	138
8.32500	137
8.33333	135
8.34167	134
8.35000	132
8.35833	131
8.36667	130
8.37500	129
8.38333	127
8.39167	126
8.40000	125
8.40833	124
8.41667	124
8.42500	125
8.43333	124
8.44167	124
8.45000	123
8.45833	122
8.46667	120
8.47500	119
8.48333	118
8.49167	117
8.50000	116
8.50833	115
8.51667	115
8.52500	114
8.53333	114
8.54167	114
8.55000	114
8.55833	113
8.56667	111
8.57500	110
8.58333	110
8.59167	109
8.60000	109
8.60833	108
8.61667	106
8.62500	107
8.63333	108
8.64167	108
8.65000	106
8.65833	105
8.66667	105
8.67500	104
8.68333	104
8.69167	103
8.70000	102
8.70833	101
8.71667	101
8.72500	101
8.73333	99
8.74167	98
8.75000	96
8.75833	96
8.76667	96
8.77500	96
8.78333	96
8.79167	95
8.80000	95
8.80833	95
8.81667	96
8.82500	97
8.83333	97
8.84167	97
8.85000	97
8.85833	96
8.86667	96
8.87500	95
8.88333	95
8.89167	96
8.90000	96
8.90833	96
8.91667	96
8.92500	95
8.93333	93
8.94167	92
8.95000	91
8.95833	89
8.96667	89
8.97500	88
8.98333	88
8.99167	86
9.00000	85
9.00833	84
9.01667	83
9.02500	82
9.03333	81
9.04167	79
9.05000	78
9.05833	77
9.06667	77
9.07500	76
9.08333	74
9.09167	74
9.10000	73
9.10833	73
9.11667	72
9.12500	72
9.13333	72
9.14167	71
9.15000	71
9.15833	70
9.16667	70
9.17500	71
9.18333	71
9.19167	70
9.20000	70
9.20833	70
9.21667	70
9.22500	69
9.23333	68
9.24167	68
9.25000	68
9.25833	67
9.26667	66
9.27500	65
9.28333	64
9.29167	64
9.30000	64
9.30833	63
9.31667	63
9.32500	63
9.33333	63
9.34167	62
9.35000	63
9.35833	63
9.36667	64
9.37500	64
9.38333	65
9.39167	65
9.40000	65
9.40833	65
9.41667	66
9.42500	65
9.43333	65
9.44167	66
9.45000	66
9.45833	66
9.46667	65
9.47500	64
9.48333	64
9.49167	64
9.50000	63
9.50833	63
9.51667	62
9.52500	60
9.53333	58
9.54167	57
9.55000	56
9.55833	56
9.56667	55
9.57500	54
9.58333	52
9.59167	52
9.60000	52
9.60833	52
9.61667	51
9.62500	50
9.63333	48
9.64167	46
9.65000	46
9.65833	46
9.66667	46
9.67500	45
9.68333	45
9.69167	45
9.70000	44
9.70833	43
9.71667	42
9.72500	42
9.73333	42
9.74167	41
9.75000	40
9.75833	40
9.76667	39
9.77500	39
9.78333	38
9.79167	38
9.80000	38
9.80833	37
9.81667	37
9.82500	36
9.83333	36
9.84167	37
9.85000	37
9.85833	37
9.86667	37
9.87500	36
9.88333	35
9.89167	33
9.90000	33
9.90833	33
9.91667	33
9.92500	34
9.93333	34
9.94167	34
9.95000	34
9.95833	34
9.96667	34
9.97500	34
9.98333	34
9.99167	34
10.00000	36

[LC Status Trace(Pump A Pressure)]
Interval(msec)	1000
# of Points	601
Start Time(min)	0.000
End Time(min)	10.000
Intensity Units	psi
Intensity Multiplier	14.2233
R.Time (min)	Intensity
0.00000	145.5
0.01667	145.5
0.03333	111.4
0.05000	119.2
0.06667	122.3
0.08333	127.6
0.10000	131.6
0.11667	133.3
0.13333	136.1
0.15000	138.3
0.16667	139.0
0.18333	140.6
0.20000	141.6
0.21667	142.2
0.23333	142.9
0.25000	143.6
0.26667	143.9
0.28333	144.1
0.30000	144.4
0.31667	144.6
0.33333	145.0
0.35000	145.2
0.36667	145.3
0.38333	145.4
0.40000	145.4
0.41667	145.5
0.43333	145.7
0.45000	145.8
0.46667	145.7
0.48333	145.8
0.50000	145.7
0.51667	145.8
0.53333	145.8
0.55000	145.7
0.56667	145.9
0.58333	145.8
0.60000	145.9
0.61667	145.9
0.63333	145.8
0.65000	145.7
0.66667	145.9
0.68333	145.9
0.70000	145.8
0.71667	145.8
0.73333	145.9
0.75000	145.9
0.76667	145.9
0.78333	145.9
0.80000	145.9
0.81667	145.9
0.83333	145.8
0.85000	145.8
0.86667	145.9
0.88333	145.9
0.90000	145.8
0.91667	145.9
0.93333	145.9
0.95000	145.8
0.96667	145.9
0.98333	145.9
1.00000	145.9
1.01667	146.1
1.03333	145.9
1.05000	146.1
1.06667	145.9
1.08333	145.8
1.10000	146.1
1.11667	145.8
1.13333	145.9
1.15000	145.9
1.16667	145.9
1.18333	145.8
1.20000	145.9
1.21667	145.9
1.23333	145.9
1.25000	145.9
1.26667	145.9
1.28333	145.9
1.30000	145.9
1.31667	145.8
1.33333	145.8
1.35000	145.8
1.36667	145.9
1.38333	145.8
1.40000	145.7
1.41667	145.9
1.43333	145.8
1.45000	145.8
1.46667	145.9
1.48333	145.9
1.50000	145.8
1.51667	145.8
1.53333	145.8
1.55000	145.9
1.56667	145.8
1.58333	145.8
1.60000	145.9
1.61667	145.7
1.63333	145.9
1.65000	145.9
1.66667	145.9
1.68333	145.9
1.70000	145.8
1.71667	145.9
1.73333	145.9
1.75000	145.9
1.76667	146.1
1.78333	145.9
1.80000	145.8
1.81667	145.9
1.83333	145.9
1.85000	145.8
1.86667	145.7
1.88333	145.9
1.90000	145.9
1.91667	145.8
1.93333	145.8
1.95000	145.9
1.96667	146.1
1.98333	145.8
2.00000	145.8
2.01667	145.9
2.03333	145.8
2.05000	145.9
2.06667	145.8
2.08333	145.9
2.10000	145.8
2.11667	146.1
2.13333	145.9
2.15000	145.9
2.16667	145.9
2.18333	145.9
2.20000	145.9
2.21667	145.9
2.23333	145.9
2.25000	146.1
2.26667	145.9
2.28333	145.9
2.30000	145.9
2.31667	145.9
2.33333	145.9
2.35000	146.1
2.36667	145.8
2.38333	145.9
2.40000	146.1
2.41667	145.9
2.43333	145.9
2.45000	146.1
2.46667	146.1
2.48333	145.9
2.50000	145.9
2.51667	145.9
2.53333	145.9
2.55000	145.8
2.56667	145.8
2.58333	145.9
2.60000	145.8
2.61667	145.9
2.63333	146.2
2.65000	145.9
2.66667	145.9
2.68333	145.9
2.70000	145.8
2.71667	145.9
2.73333	146.1
2.75000	146.1
2.76667	146.1
2.78333	145.9
2.80000	145.9
2.81667	145.9
2.83333	146.1
2.85000	145.9
2.86667	146.1
2.88333	145.9
2.90000	145.9
2.91667	145.9
2.93333	145.9
2.95000	145.9
2.96667	145.9
2.98333	145.9
3.00000	146.1
3.01667	145.9
3.03333	146.1
3.05000	146.1
3.06667	146.1
3.08333	145.9
3.10000	146.1
3.11667	145.9
3.13333	146.1
3.15000	146.2
3.16667	146.1
3.18333	146.2
3.20000	146.1
3.21667	146.3
3.23333	146.1
3.25000	146.1
3.26667	145.9
3.28333	146.1
3.30000	146.1
3.31667	146.1
3.33333	146.1
3.35000	146.1
3.36667	145.9
3.38333	146.1
3.40000	146.1
3.41667	145.9
3.43333	145.9
3.45000	145.9
3.46667	146.1
3.48333	146.1
3.50000	146.1
3.51667	146.1
3.53333	145.8
3.55000	145.9
3.56667	145.9
3.58333	146.1
3.60000	145.9
3.61667	145.9
3.63333	146.1
3.65000	145.9
3.66667	145.9
3.68333	146.1
3.70000	146.1
3.71667	145.9
3.73333	145.9
3.75000	146.1
3.76667	146.1
3.78333	146.1
3.80000	146.1
3.81667	145.9
3.83333	146.1
3.85000	145.9
3.86667	146.1
3.88333	146.1
3.90000	146.1
3.91667	146.1
3.93333	145.9
3.95000	146.2
3.96667	145.9
3.98333	145.9
4.00000	145.9
4.01667	145.9
4.03333	146.1
4.05000	146.2
4.06667	145.9
4.08333	145.9
4.10000	145.9
4.11667	146.2
4.13333	146.1
4.15000	146.1
4.16667	146.2
4.18333	145.9
4.20000	146.1
4.21667	145.8
4.23333	146.1
4.25000	146.1
4.26667	145.9
4.28333	146.1
4.30000	146.1
4.31667	146.1
4.33333	146.1
4.35000	146.2
4.36667	146.1
4.38333	146.1
4.40000	145.9
4.41667	146.1
4.43333	146.2
4.45000	146.1
4.46667	146.1
4.48333	146.1
4.50000	146.1
4.51667	146.1
4.53333	145.9
4.55000	146.1
4.56667	146.1
4.58333	146.2
4.60000	146.1
4.61667	146.1
4.63333	146.1
4.65000	146.2
4.66667	146.1
4.68333	146.2
4.70000	145.9
4.71667	146.1
4.73333	146.2
4.75000	146.2
4.76667	146.1
4.78333	146.1
4.80000	146.2
4.81667	146.2
4.83333	146.2
4.85000	146.3
4.86667	146.3
4.88333	146.1
4.90000	146.2
4.91667	146.2
4.93333	146.2
4.95000	146.1
4.96667	146.2
4.98333	146.2
5.00000	146.1
5.01667	146.1
5.03333	146.1
5.05000	146.2
5.06667	145.9
5.08333	145.9
5.10000	146.1
5.11667	146.2
5.13333	146.2
5.15000	146.1
5.16667	146.1
5.18333	146.1
5.20000	146.1
5.21667	146.2
5.23333	146.1
5.25000	146.2
5.26667	146.1
5.28333	146.1
5.30000	146.2
5.31667	146.1
5.33333	146.2
5.35000	146.1
5.36667	146.2
5.38333	146.2
5.40000	146.2
5.41667	146.2
5.43333	146.2
5.45000	146.3
5.46667	146.1
5.48333	146.1
5.50000	146.1
5.51667	146.1
5.53333	146.1
5.55000	146.2
5.56667	146.2
5.58333	146.2
5.60000	146.1
5.61667	146.2
5.63333	146.1
5.65000	146.2
5.66667	146.1
5.68333	146.2
5.70000	146.1
5.71667	146.1
5.73333	146.2
5.75000	146.2
5.76667	146.2
5.78333	146.1
5.80000	146.2
5.81667	146.1
5.83333	146.2
5.85000	146.2
5.86667	146.2
5.88333	146.3
5.90000	146.2
5.91667	146.2
5.93333	146.2
5.95000	146.3
5.96667	146.2
5.98333	146.2
6.00000	146.2
6.01667	146.1
6.03333	146.3
6.05000	146.1
6.06667	146.3
6.08333	146.2
6.10000	146.2
6.11667	146.1
6.13333	146.2
6.15000	146.2
6.16667	146.1
6.18333	146.2
6.20000	146.2
6.21667	146.1
6.23333	146.1
6.25000	146.1
6.26667	146.1
6.28333	146.2
6.30000	146.2
6.31667	146.2
6.33333	146.2
6.35000	146.3
6.36667	146.3
6.38333	146.1
6.40000	146.1
6.41667	146.2
6.43333	146.1
6.45000	146.1
6.46667	146.2
6.48333	146.3
6.50000	146.3
6.51667	146.2
6.53333	146.1
6.55000	146.2
6.56667	146.2
6.58333	146.2
6.60000	146.2
6.61667	146.2
6.63333	146.2
6.65000	145.9
6.66667	145.9
6.68333	146.1
6.70000	146.2
6.71667	146.1
6.73333	146.2
6.75000	146.1
6.76667	146.1
6.78333	146.2
6.80000	146.2
6.81667	146.2
6.83333	146.2
6.85000	146.2
6.86667	146.2
6.88333	146.1
6.90000	146.1
6.91667	146.2
6.93333	146.2
6.95000	146.2
6.96667	146.2
6.98333	146.1
7.00000	146.2
7.01667	146.1
7.03333	146.2
7.05000	146.2
7.06667	146.1
7.08333	146.3
7.10000	146.2
7.11667	146.2
7.13333	146.3
7.15000	146.2
7.16667	146.3
7.18333	146.2
7.20000	146.3
7.21667	146.3
7.23333	146.2
7.25000	146.2
7.26667	146.2
7.28333	146.2
7.30000	146.2
7.31667	146.2
7.33333	146.2
7.35000	146.2
7.36667	146.2
7.38333	146.2
7.40000	146.2
7.41667	146.2
7.43333	146.2
7.45000	146.1
7.46667	146.2
7.48333	146.2
7.50000	146.2
7.51667	146.2
7.53333	146.3
7.55000	146.3
7.56667	146.3
7.58333	146.3
7.60000	146.2
7.61667	146.2
7.63333	146.3
7.65000	146.2
7.66667	146.3
7.68333	146.2
7.70000	146.3
7.71667	146.3
7.73333	146.2
7.75000	146.1
7.76667	146.2
7.78333	146.2
7.80000	146.2
7.81667	146.2
7.83333	146.2
7.85000	146.3
7.86667	146.2
7.88333	146.2
7.90000	146.3
7.91667	146.2
7.93333	146.3
7.95000	146.2
7.96667	146.3
7.98333	146.2
8.00000	146.2
8.01667	146.2
8.03333	146.2
8.05000	146.2
8.06667	146.3
8.08333	146.2
8.10000	146.2
8.11667	146.1
8.13333	146.1
8.15000	146.3
8.16667	146.2
8.18333	146.2
8.20000	146.3
8.21667	146.1
8.23333	146.2
8.25000	146.2
8.26667	146.2
8.28333	146.2
8.30000	146.2
8.31667	146.2
8.33333	146.2
8.35000	146.2
8.36667	146.2
8.38333	146.2
8.40000	146.3
8.41667	146.2
8.43333	146.2
8.45000	146.2
8.46667	146.2
8.48333	146.2
8.50000	146.3
8.51667	146.2
8.53333	146.2
8.55000	146.3
8.56667	146.3
8.58333	146.3
8.60000	146.3
8.61667	146.3
8.63333	146.3
8.65000	146.1
8.66667	146.3
8.68333	146.2
8.70000	146.2
8.71667	146.3
8.73333	146.3
8.75000	146.2
8.76667	146.2
8.78333	146.3
8.80000	146.3
8.81667	146.1
8.83333	146.1
8.85000	146.3
8.86667	146.5
8.88333	146.2
8.90000	146.2
8.91667	146.2
8.93333	146.3
8.95000	146.2
8.96667	146.2
8.98333	146.5
9.00000	146.2
9.01667	146.2
9.03333	146.3
9.05000	146.2
9.06667	146.3
9.08333	146.3
9.10000	146.5
9.11667	146.3
9.13333	146.3
9.15000	146.3
9.16667	146.3
9.18333	146.1
9.20000	146.3
9.21667	146.3
9.23333	146.2
9.25000	146.2
9.26667	146.2
9.28333	146.5
9.30000	146.3
9.31667	146.2
9.33333	146.3
9.35000	146.2
9.36667	146.3
9.38333	146.2
9.40000	146.3
9.41667	146.3
9.43333	146.3
9.45000	146.2
9.46667	146.2
9.48333	146.2
9.50000	146.2
9.51667	146.1
9.53333	146.3
9.55000	146.2
9.56667	146.2
9.58333	146.5
9.60000	146.3
9.61667	146.2
9.63333	146.3
9.65000	146.3
9.66667	146.3
9.68333	146.2
9.70000	146.2
9.71667	146.5
9.73333	146.2
9.75000	146.5
9.76667	146.3
9.78333	146.2
9.80000	146.3
9.81667	146.5
9.83333	146.3
9.85000	146.3
9.86667	146.2
9.88333	146.3
9.90000	146.3
9.91667	146.3
9.93333	146.2
9.95000	146.3
9.96667	146.3
9.98333	146.2
10.00000	146.2

[LC Status Trace(Pump A Degasser Pressure)]
Interval(msec)	1000
# of Points	601
Start Time(min)	0.000
End Time(min)	10.000
Intensity Units	psi
Intensity Multiplier	14.2233
R.Time (min)	Intensity
0.00000	964.6
0.01667	964.6
0.03333	964.6
0.05000	964.6
0.06667	964.6
0.08333	964.6
0.10000	964.6
0.11667	964.6
0.13333	964.6
0.15000	964.6
0.16667	964.6
0.18333	964.6
0.20000	964.6
0.21667	964.6
0.23333	964.6
0.25000	964.6
0.26667	964.6
0.28333	964.6
0.30000	964.6
0.31667	964.6
0.33333	964.6
0.35000	964.6
0.36667	964.6
0.38333	964.6
0.40000	964.6
0.41667	964.6
0.43333	964.6
0.45000	964.6
0.46667	964.6
0.48333	964.6
0.50000	964.6
0.51667	964.6
0.53333	964.6
0.55000	964.6
0.56667	964.6
0.58333	964.6
0.60000	964.6
0.61667	964.6
0.63333	964.6
0.65000	964.6
0.66667	964.6
0.68333	964.6
0.70000	964.6
0.71667	964.6
0.73333	964.6
0.75000	964.6
0.76667	964.6
0.78333	964.6
0.80000	964.6
0.81667	964.6
0.83333	964.6
0.85000	964.6
0.86667	964.6
0.88333	964.6
0.90000	964.6
0.91667	964.6
0.93333	964.6
0.95000	964.6
0.96667	964.6
0.98333	964.6
1.00000	964.6
1.01667	964.6
1.03333	964.6
1.05000	964.6
1.06667	964.6
1.08333	964.6
1.10000	964.6
1.11667	964.6
1.13333	964.6
1.15000	964.6
1.16667	964.6
1.18333	964.6
1.20000	964.6
1.21667	964.6
1.23333	964.6
1.25000	964.6
1.26667	964.6
1.28333	964.6
1.30000	964.6
1.31667	964.6
1.33333	964.6
1.35000	964.6
1.36667	964.6
1.38333	964.6
1.40000	964.6
1.41667	964.6
1.43333	964.6
1.45000	964.6
1.46667	964.6
1.48333	964.6
1.50000	964.6
1.51667	964.6
1.53333	964.6
1.55000	964.6
1.56667	964.6
1.58333	964.6
1.60000	964.6
1.61667	964.6
1.63333	964.6
1.65000	964.6
1.66667	964.6
1.68333	964.6
1.70000	964.6
1.71667	964.6
1.73333	964.6
1.75000	964.6
1.76667	964.6
1.78333	964.6
1.80000	964.6
1.81667	964.6
1.83333	964.6
1.85000	964.6
1.86667	964.6
1.88333	964.6
1.90000	964.6
1.91667	964.6
1.93333	964.6
1.95000	964.6
1.96667	964.6
1.98333	964.6
2.00000	964.6
2.01667	964.6
2.03333	964.6
2.05000	964.6
2.06667	964.6
2.08333	964.6
2.10000	964.6
2.11667	964.6
2.13333	964.6
2.15000	964.6
2.16667	964.6
2.18333	964.6
2.20000	964.6
2.21667	964.6
2.23333	964.6
2.25000	964.6
2.26667	964.6
2.28333	964.6
2.30000	964.6
2.31667	964.6
2.33333	964.6
2.35000	964.6
2.36667	964.6
2.38333	964.6
2.40000	964.6
2.41667	964.6
2.43333	964.6
2.45000	964.6
2.46667	964.6
2.48333	964.6
2.50000	964.6
2.51667	964.6
2.53333	964.6
2.55000	964.6
2.56667	964.6
2.58333	964.6
2.60000	964.6
2.61667	964.6
2.63333	964.6
2.65000	964.6
2.66667	964.6
2.68333	964.6
2.70000	964.6
2.71667	964.6
2.73333	964.6
2.75000	964.6
2.76667	964.6
2.78333	964.6
2.80000	964.6
2.81667	964.6
2.83333	964.6
2.85000	964.6
2.86667	964.6
2.88333	964.6
2.90000	964.6
2.91667	964.6
2.93333	964.6
2.95000	964.6
2.96667	964.6
2.98333	964.6
3.00000	964.6
3.01667	964.6
3.03333	964.6
3.05000	964.6
3.06667	964.6
3.08333	964.6
3.10000	964.6
3.11667	964.6
3.13333	964.6
3.15000	964.6
3.16667	964.6
3.18333	964.6
3.20000	964.6
3.21667	964.6
3.23333	964.6
3.25000	964.6
3.26667	964.6
3.28333	964.6
3.30000	964.6
3.31667	964.6
3.33333	964.6
3.35000	964.6
3.36667	964.6
3.38333	964.6
3.40000	964.6
3.41667	964.6
3.43333	964.6
3.45000	964.6
3.46667	964.6
3.48333	964.6
3.50000	964.6
3.51667	964.6
3.53333	964.6
3.55000	964.6
3.56667	964.6
3.58333	964.6
3.60000	964.6
3.61667	964.6
3.63333	964.6
3.65000	964.6
3.66667	964.6
3.68333	964.6
3.70000	964.6
3.71667	964.6
3.73333	964.6
3.75000	964.6
3.76667	964.6
3.78333	964.6
3.80000	964.6
3.81667	964.6
3.83333	964.6
3.85000	964.6
3.86667	964.6
3.88333	964.6
3.90000	964.6
3.91667	964.6
3.93333	964.6
3.95000	964.6
3.96667	964.6
3.98333	964.6
4.00000	964.6
4.01667	964.6
4.03333	964.6
4.05000	964.6
4.06667	964.6
4.08333	964.6
4.10000	964.6
4.11667	964.6
4.13333	964.6
4.15000	964.6
4.16667	964.6
4.18333	964.6
4.20000	964.6
4.21667	964.6
4.23333	964.6
4.25000	964.6
4.26667	964.6
4.28333	964.6
4.30000	964.6
4.31667	964.6
4.33333	964.6
4.35000	964.6
4.36667	964.6
4.38333	964.6
4.40000	964.6
4.41667	964.6
4.43333	964.6
4.45000	964.6
4.46667	964.6
4.48333	964.6
4.50000	964.6
4.51667	964.6
4.53333	964.6
4.55000	964.6
4.56667	964.6
4.58333	964.6
4.60000	964.6
4.61667	964.6
4.63333	964.6
4.65000	964.6
4.66667	964.6
4.68333	964.6
4.70000	964.6
4.71667	964.6
4.73333	964.6
4.75000	964.6
4.76667	964.6
4.78333	964.6
4.80000	964.6
4.81667	964.6
4.83333	964.6
4.85000	964.6
4.86667	964.6
4.88333	964.6
4.90000	964.6
4.91667	964.6
4.93333	964.6
4.95000	964.6
4.96667	964.6
4.98333	964.6
5.00000	964.6
5.01667	964.6
5.03333	964.6
5.05000	964.6
5.06667	964.6
5.08333	964.6
5.10000	964.6
5.11667	964.6
5.13333	964.6
5.15000	964.6
5.16667	964.6
5.18333	964.6
5.20000	964.6
5.21667	964.6
5.23333	964.6
5.25000	964.6
5.26667	964.6
5.28333	964.6
5.30000	964.6
5.31667	964.6
5.33333	964.6
5.35000	964.6
5.36667	964.6
5.38333	964.6
5.40000	964.6
5.41667	964.6
5.43333	964.6
5.45000	964.6
5.46667	964.6
5.48333	964.6
5.50000	964.6
5.51667	964.6
5.53333	964.6
5.55000	964.6
5.56667	964.6
5.58333	964.6
5.60000	964.6
5.61667	964.6
5.63333	964.6
5.65000	964.6
5.66667	964.6
5.68333	964.6
5.70000	964.6
5.71667	964.6
5.73333	964.6
5.75000	964.6
5.76667	964.6
5.78333	964.6
5.80000	964.6
5.81667	964.6
5.83333	964.6
5.85000	964.6
5.86667	964.6
5.88333	964.6
5.90000	964.6
5.91667	964.6
5.93333	964.6
5.95000	964.6
5.96667	964.6
5.98333	964.6
6.00000	964.6
6.01667	964.6
6.03333	964.6
6.05000	964.6
6.06667	964.6
6.08333	964.6
6.10000	964.6
6.11667	964.6
6.13333	964.6
6.15000	964.6
6.16667	964.6
6.18333	964.6
6.20000	964.6
6.21667	964.6
6.23333	964.6
6.25000	964.6
6.26667	964.6
6.28333	964.6
6.30000	964.6
6.31667	964.6
6.33333	964.6
6.35000	964.6
6.36667	964.6
6.38333	964.6
6.40000	964.6
6.41667	964.6
6.43333	964.6
6.45000	964.6
6.46667	964.6
6.48333	964.6
6.50000	964.6
6.51667	964.6
6.53333	964.6
6.55000	964.6
6.56667	964.6
6.58333	964.6
6.60000	964.6
6.61667	964.6
6.63333	964.6
6.65000	964.6
6.66667	964.6
6.68333	964.6
6.70000	964.6
6.71667	964.6
6.73333	964.6
6.75000	964.6
6.76667	964.6
6.78333	964.6
6.80000	964.6
6.81667	964.6
6.83333	964.6
6.85000	964.6
6.86667	964.6
6.88333	964.6
6.90000	964.6
6.91667	964.6
6.93333	964.6
6.95000	964.6
6.96667	964.6
6.98333	964.6
7.00000	964.6
7.01667	964.6
7.03333	964.6
7.05000	964.6
7.06667	964.6
7.08333	964.6
7.10000	964.6
7.11667	964.6
7.13333	964.6
7.15000	964.6
7.16667	964.6
7.18333	964.6
7.20000	964.6
7.21667	964.6
7.23333	964.6
7.25000	964.6
7.26667	964.6
7.28333	964.6
7.30000	964.6
7.31667	964.6
7.33333	964.6
7.35000	964.6
7.36667	964.6
7.38333	964.6
7.40000	964.6
7.41667	964.6
7.43333	964.6
7.45000	964.6
7.46667	964.6
7.48333	964.6
7.50000	964.6
7.51667	964.6
7.53333	964.6
7.55000	964.6
7.56667	964.6
7.58333	964.6
7.60000	964.6
7.61667	964.6
7.63333	964.6
7.65000	964.6
7.66667	964.6
7.68333	964.6
7.70000	964.6
7.71667	964.6
7.73333	964.6
7.75000	964.6
7.76667	964.6
7.78333	964.6
7.80000	964.6
7.81667	964.6
7.83333	964.6
7.85000	964.6
7.86667	964.6
7.88333	964.6
7.90000	964.6
7.91667	964.6
7.93333	964.6
7.95000	964.6
7.96667	964.6
7.98333	964.6
8.00000	964.6
8.01667	964.6
8.03333	964.6
8.05000	964.6
8.06667	964.6
8.08333	964.6
8.10000	964.6
8.11667	964.6
8.13333	964.6
8.15000	964.6
8.16667	964.6
8.18333	964.6
8.20000	964.6
8.21667	964.6
8.23333	964.6
8.25000	964.6
8.26667	964.6
8.28333	964.6
8.30000	964.6
8.31667	964.6
8.33333	964.6
8.35000	964.6
8.36667	964.6
8.38333	964.6
8.40000	964.6
8.41667	964.6
8.43333	964.6
8.45000	964.6
8.46667	964.6
8.48333	964.6
8.50000	964.6
8.51667	964.6
8.53333	964.6
8.55000	964.6
8.56667	964.6
8.58333	964.6
8.60000	964.6
8.61667	964.6
8.63333	964.6
8.65000	964.6
8.66667	964.6
8.68333	964.6
8.70000	964.6
8.71667	964.6
8.73333	964.6
8.75000	964.6
8.76667	964.6
8.78333	964.6
8.80000	964.6
8.81667	964.6
8.83333	964.6
8.85000	964.6
8.86667	964.6
8.88333	964.6
8.90000	964.6
8.91667	964.6
8.93333	964.6
8.95000	964.6
8.96667	964.6
8.98333	964.6
9.00000	964.6
9.01667	964.6
9.03333	964.6
9.05000	964.6
9.06667	964.6
9.08333	964.6
9.10000	964.6
9.11667	964.6
9.13333	964.6
9.15000	964.6
9.16667	964.6
9.18333	964.6
9.20000	964.6
9.21667	964.6
9.23333	964.6
9.25000	964.6
9.26667	964.6
9.28333	964.6
9.30000	964.6
9.31667	964.6
9.33333	964.6
9.35000	964.6
9.36667	964.6
9.38333	964.6
9.40000	964.6
9.41667	964.6
9.43333	964.6
9.45000	964.6
9.46667	964.6
9.48333	964.6
9.50000	964.6
9.51667	964.6
9.53333	964.6
9.55000	964.6
9.56667	964.6
9.58333	964.6
9.60000	964.6
9.61667	964.6
9.63333	964.6
9.65000	964.6
9.66667	964.6
9.68333	964.6
9.70000	964.6
9.71667	964.6
9.73333	964.6
9.75000	964.6
9.76667	964.6
9.78333	964.6
9.80000	964.6
9.81667	964.6
9.83333	964.6
9.85000	964.6
9.86667	964.6
9.88333	964.6
9.90000	964.6
9.91667	964.6
9.93333	964.6
9.95000	964.6
9.96667	964.6
9.98333	964.6
10.00000	964.6

[LC Status Trace(RF A Cell Temp.)]
Interval(msec)	1000
# of Points	601
Start Time(min)	0.000
End Time(min)	10.000
Intensity Units	C
Intensity Multiplier	1
R.Time (min)	Intensity
0.00000	40.03
0.01667	40.03
0.03333	40.02
0.05000	40.00
0.06667	40.00
0.08333	40.00
0.10000	40.02
0.11667	40.03
0.13333	40.05
0.15000	40.03
0.16667	40.08
0.18333	40.09
0.20000	40.08
0.21667	40.07
0.23333	40.05
0.25000	40.06
0.26667	40.05
0.28333	40.06
0.30000	40.06
0.31667	40.07
0.33333	40.08
0.35000	40.05
0.36667	40.05
0.38333	40.02
0.40000	40.00
0.41667	40.00
0.43333	40.03
0.45000	40.03
0.46667	40.00
0.48333	39.99
0.50000	40.03
0.51667	39.99
0.53333	40.02
0.55000	40.00
0.56667	40.00
0.58333	40.03
0.60000	40.03
0.61667	40.03
0.63333	40.03
0.65000	40.02
0.66667	40.00
0.68333	40.00
0.70000	40.00
0.71667	40.00
0.73333	40.00
0.75000	40.02
0.76667	40.02
0.78333	40.02
0.80000	39.99
0.81667	40.00
0.83333	40.00
0.85000	40.03
0.86667	40.05
0.88333	40.00
0.90000	40.00
0.91667	40.00
0.93333	40.00
0.95000	40.00
0.96667	40.02
0.98333	40.02
1.00000	40.00
1.01667	40.00
1.03333	40.00
1.05000	40.02
1.06667	40.03
1.08333	40.06
1.10000	40.02
1.11667	40.05
1.13333	40.00
1.15000	39.99
1.16667	39.99
1.18333	40.00
1.20000	40.00
1.21667	40.00
1.23333	40.02
1.25000	40.02
1.26667	40.02
1.28333	40.03
1.30000	40.02
1.31667	40.00
1.33333	40.00
1.35000	40.00
1.36667	40.00
1.38333	40.00
1.40000	40.02
1.41667	40.00
1.43333	40.00
1.45000	40.00
1.46667	40.00
1.48333	39.98
1.50000	39.98
1.51667	40.00
1.53333	40.00
1.55000	40.00
1.56667	40.00
1.58333	40.00
1.60000	39.97
1.61667	39.93
1.63333	39.95
1.65000	39.93
1.66667	39.95
1.68333	39.95
1.70000	39.99
1.71667	40.00
1.73333	39.99
1.75000	40.00
1.76667	40.00
1.78333	39.99
1.80000	40.00
1.81667	40.00
1.83333	40.00
1.85000	40.00
1.86667	40.03
1.88333	40.02
1.90000	40.03
1.91667	40.03
1.93333	40.02
1.95000	40.00
1.96667	40.02
1.98333	40.00
2.00000	40.00
2.01667	40.00
2.03333	39.99
2.05000	39.97
2.06667	39.93
2.08333	39.97
2.10000	40.00
2.11667	40.00
2.13333	39.99
2.15000	40.00
2.16667	40.00
2.18333	40.02
2.20000	40.05
2.21667	40.02
2.23333	40.05
2.25000	40.06
2.26667	40.00
2.28333	40.00
2.30000	40.02
2.31667	40.05
2.33333	40.00
2.35000	40.00
2.36667	40.06
2.38333	40.03
2.40000	40.00
2.41667	39.99
2.43333	39.99
2.45000	39.98
2.46667	39.93
2.48333	39.95
2.50000	39.97
2.51667	39.96
2.53333	39.93
2.55000	39.93
2.56667	39.95
2.58333	39.99
2.60000	40.00
2.61667	39.99
2.63333	40.03
2.65000	40.02
2.66667	40.05
2.68333	40.06
2.70000	40.02
2.71667	40.00
2.73333	40.00
2.75000	40.00
2.76667	40.03
2.78333	40.00
2.80000	40.00
2.81667	40.00
2.83333	39.99
2.85000	39.99
2.86667	40.00
2.88333	40.00
2.90000	40.00
2.91667	39.99
2.93333	40.03
2.95000	40.00
2.96667	39.97
2.98333	40.00
3.00000	40.00
3.01667	39.99
3.03333	40.00
3.05000	39.99
3.06667	39.99
3.08333	39.95
3.10000	39.96
3.11667	39.93
3.13333	39.93
3.15000	39.93
3.16667	39.93
3.18333	39.96
3.20000	39.99
3.21667	40.00
3.23333	40.00
3.25000	40.00
3.26667	40.00
3.28333	40.00
3.30000	40.02
3.31667	40.05
3.33333	40.00
3.35000	40.00
3.36667	40.00
3.38333	40.00
3.40000	40.00
3.41667	40.00
3.43333	40.00
3.45000	40.00
3.46667	39.99
3.48333	40.00
3.50000	40.00
3.51667	40.00
3.53333	39.96
3.55000	39.93
3.56667	39.93
3.58333	39.98
3.60000	39.96
3.61667	39.98
3.63333	39.98
3.65000	40.00
3.66667	40.00
3.68333	40.00
3.70000	40.00
3.71667	40.00
3.73333	40.00
3.75000	39.99
3.76667	39.99
3.78333	39.99
3.80000	40.00
3.81667	40.00
3.83333	40.05
3.85000	40.02
3.86667	40.03
3.88333	40.06
3.90000	40.00
3.91667	40.00
3.93333	40.00
3.95000	40.00
3.96667	40.02
3.98333	40.02
4.00000	40.02
4.01667	40.00
4.03333	40.00
4.05000	40.05
4.06667	40.06
4.08333	40.00
4.10000	40.00
4.11667	40.00
4.13333	40.02
4.15000	40.02
4.16667	40.00
4.18333	40.00
4.20000	40.00
4.21667	40.00
4.23333	40.00
4.25000	40.00
4.26667	40.00
4.28333	40.00
4.30000	40.00
4.31667	40.00
4.33333	39.98
4.35000	39.91
4.36667	39.95
4.38333	39.99
4.40000	39.98
4.41667	40.00
4.43333	40.02
4.45000	40.00
4.46667	40.00
4.48333	40.00
4.50000	40.00
4.51667	40.00
4.53333	40.03
4.55000	40.02
4.56667	40.02
4.58333	40.00
4.60000	40.00
4.61667	40.00
4.63333	40.00
4.65000	40.00
4.66667	40.00
4.68333	40.00
4.70000	40.02
4.71667	40.06
4.73333	40.00
4.75000	40.03
4.76667	40.03
4.78333	40.02
4.80000	40.02
4.81667	40.00
4.83333	40.02
4.85000	40.05
4.86667	40.00
4.88333	40.00
4.90000	40.00
4.91667	40.03
4.93333	40.03
4.95000	40.05
4.96667	40.07
4.98333	40.00
5.00000	39.99
5.01667	39.99
5.03333	40.00
5.05000	40.02
5.06667	40.02
5.08333	40.02
5.10000	40.05
5.11667	40.00
5.13333	40.00
5.15000	40.03
5.16667	40.02
5.18333	40.00
5.20000	40.02
5.21667	40.03
5.23333	40.00
5.25000	40.06
5.26667	40.05
5.28333	40.03
5.30000	40.05
5.31667	40.00
5.33333	40.00
5.35000	40.00
5.36667	40.00
5.38333	40.00
5.40000	40.00
5.41667	40.00
5.43333	40.05
5.45000	40.08
5.46667	40.00
5.48333	40.00
5.50000	40.02
5.51667	40.00
5.53333	40.00
5.55000	40.00
5.56667	40.02
5.58333	40.00
5.60000	40.00
5.61667	40.00
5.63333	40.00
5.65000	40.00
5.66667	40.02
5.68333	40.00
5.70000	39.99
5.71667	39.99
5.73333	40.00
5.75000	39.97
5.76667	39.98
5.78333	39.95
5.80000	39.93
5.81667	39.93
5.83333	39.95
5.85000	39.99
5.86667	39.96
5.88333	40.00
5.90000	40.00
5.91667	40.02
5.93333	40.00
5.95000	39.99
5.96667	39.99
5.98333	40.03
6.00000	40.00
6.01667	40.00
6.03333	40.00
6.05000	39.99
6.06667	40.00
6.08333	40.00
6.10000	40.03
6.11667	40.00
6.13333	40.00
6.15000	40.00
6.16667	40.00
6.18333	40.00
6.20000	40.00
6.21667	40.02
6.23333	40.02
6.25000	40.00
6.26667	40.00
6.28333	40.00
6.30000	40.00
6.31667	40.02
6.33333	40.08
6.35000	40.03
6.36667	40.00
6.38333	40.02
6.40000	40.02
6.41667	40.00
6.43333	40.05
6.45000	40.03
6.46667	40.05
6.48333	40.00
6.50000	40.03
6.51667	40.03
6.53333	40.03
6.55000	40.00
6.56667	40.00
6.58333	40.00
6.60000	40.00
6.61667	40.02
6.63333	40.00
6.65000	40.00
6.66667	40.00
6.68333	40.00
6.70000	40.00
6.71667	40.00
6.73333	40.02
6.75000	40.00
6.76667	40.00
6.78333	40.00
6.80000	40.03
6.81667	40.00
6.83333	40.02
6.85000	40.05
6.86667	40.05
6.88333	40.00
6.90000	40.00
6.91667	40.00
6.93333	40.00
6.95000	40.00
6.96667	40.02
6.98333	40.00
7.00000	40.00
7.01667	40.00
7.03333	40.00
7.05000	40.02
7.06667	40.00
7.08333	40.00
7.10000	40.02
7.11667	40.02
7.13333	40.06
7.15000	40.03
7.16667	40.03
7.18333	40.00
7.20000	40.00
7.21667	40.00
7.23333	40.00
7.25000	39.99
7.26667	40.02
7.28333	40.00
7.30000	40.00
7.31667	40.00
7.33333	39.99
7.35000	40.00
7.36667	40.00
7.38333	40.00
7.40000	39.99
7.41667	40.00
7.43333	40.00
7.45000	40.05
7.46667	40.02
7.48333	40.02
7.50000	40.00
7.51667	40.00
7.53333	40.03
7.55000	40.00
7.56667	40.00
7.58333	40.05
7.60000	40.02
7.61667	40.00
7.63333	40.00
7.65000	40.00
7.66667	40.06
7.68333	40.06
7.70000	40.00
7.71667	40.00
7.73333	40.03
7.75000	40.00
7.76667	40.00
7.78333	40.00
7.80000	40.00
7.81667	40.00
7.83333	40.00
7.85000	39.99
7.86667	39.98
7.88333	39.93
7.90000	39.93
7.91667	39.98
7.93333	40.00
7.95000	39.99
7.96667	40.00
7.98333	40.00
8.00000	40.02
8.01667	40.03
8.03333	40.00
8.05000	40.00
8.06667	40.03
8.08333	40.00
8.10000	40.00
8.11667	40.02
8.13333	40.00
8.15000	40.00
8.16667	40.02
8.18333	40.00
8.20000	40.00
8.21667	39.99
8.23333	39.97
8.25000	39.97
8.26667	39.99
8.28333	39.98
8.30000	39.99
8.31667	40.00
8.33333	40.00
8.35000	40.00
8.36667	40.03
8.38333	40.02
8.40000	40.00
8.41667	40.00
8.43333	40.02
8.45000	40.02
8.46667	40.05
8.48333	40.02
8.50000	40.02
8.51667	40.00
8.53333	40.00
8.55000	40.05
8.56667	40.03
8.58333	40.02
8.60000	40.00
8.61667	40.00
8.63333	40.00
8.65000	40.00
8.66667	40.00
8.68333	40.02
8.70000	40.00
8.71667	40.00
8.73333	39.99
8.75000	40.00
8.76667	39.99
8.78333	39.98
8.80000	39.95
8.81667	39.93
8.83333	39.93
8.85000	39.95
8.86667	39.99
8.88333	40.00
8.90000	40.00
8.91667	40.00
8.93333	40.00
8.95000	39.99
8.96667	40.00
8.98333	40.05
9.00000	40.02
9.01667	40.00
9.03333	39.99
9.05000	40.00
9.06667	40.03
9.08333	39.98
9.10000	39.99
9.11667	40.02
9.13333	40.05
9.15000	40.05
9.16667	40.02
9.18333	40.03
9.20000	40.00
9.21667	40.00
9.23333	40.00
9.25000	40.00
9.26667	40.00
9.28333	40.00
9.30000	40.00
9.31667	40.03
9.33333	40.03
9.35000	40.00
9.36667	40.00
9.38333	40.02
9.40000	40.00
9.41667	40.02
9.43333	40.07
9.45000	40.05
9.46667	40.02
9.48333	39.99
9.50000	40.00
9.51667	40.00
9.53333	40.00
9.55000	40.00
9.56667	40.00
9.58333	40.05
9.60000	40.03
9.61667	40.00
9.63333	40.00
9.65000	40.00
9.66667	40.02
9.68333	40.05
9.70000	40.05
9.71667	40.00
9.73333	40.00
9.75000	40.02
9.76667	39.99
9.78333	40.00
9.80000	40.00
9.81667	40.03
9.83333	40.03
9.85000	40.02
9.86667	40.02
9.88333	40.00
9.90000	40.00
9.91667	40.00
9.93333	40.00
9.95000	39.99
9.96667	40.00
9.98333	39.99
10.00000	40.00

[Fraction Collection Report]
# of Fractions	0
