[Header]
Application Name	LabSolutions
Version	5.81 SP1
Data File Name	C:\LabSolutions\Data\Shangwen\20170529__Assay2+ATP_003.lcd
Output Date	5/29/2017
Output Time	3:31:29 PM

[File Information]
Type	Data File
Generated	5/29/2017 12:30:23 PM
Generated by	System Administrator
Modified	5/29/2017 12:40:48 PM
Modified by	System Administrator

[Sample Information]
Operator Name	System Administrator
Acquired	5/29/2017 12:30:46 PM
Sample Type	0:Unknown
Level	0
Sample Name	Assay2+ATP
Sample ID	002
ISTD Amount1	1
ISTD Amount2	1
ISTD Amount3	1
ISTD Amount4	1
ISTD Amount5	1
ISTD Amount6	1
ISTD Amount7	1
ISTD Amount8	1
ISTD Amount9	1
ISTD Amount10	1
ISTD Amount11	1
ISTD Amount12	1
ISTD Amount13	1
ISTD Amount14	1
ISTD Amount15	1
ISTD Amount16	1
ISTD Amount17	1
ISTD Amount18	1
ISTD Amount19	1
ISTD Amount20	1
ISTD Amount21	1
ISTD Amount22	1
ISTD Amount23	1
ISTD Amount24	1
ISTD Amount25	1
ISTD Amount26	1
ISTD Amount27	1
ISTD Amount28	1
ISTD Amount29	1
ISTD Amount30	1
ISTD Amount31	1
ISTD Amount32	1
Sample Amount	1
Dilution Factor	1
Vial#	97
Injection Volume	5

[Original Files]
Data File	C:\LabSolutions\Data\Shangwen\20170529__Assay2+ATP_003.lcd
Method File	C:\LabSolutions\Data\Shangwen\20170524_ATPAMP.lcm
Batch File	C:\LabSolutions\Data\Shangwen\20170524_batch2.lcb
Report Format File	c:\LabSolutions\System\DEFAULT.lsr

[File Description]


[Configuration]
Instrument Name	NAIR-HPLC-Instrument1
Instrument #	1
Line #	1
# of Detectors	2
Detector ID	Detector A	AD2
Detector Name	Detector A	ELSD
# of Channels	1	1

[Peak Table(Detector A)]
# of Peaks	11
Peak#	R.Time	I.Time	F.Time	Area	Height	A/H	Conc.	Mark	ID#	Name	k'	Plate #	Plate Ht.	Tailing	Resolution	Sep.Factor	Area Ratio	Height Ratio	Conc. %	Norm Conc.
1	0.949	0.700	1.233	1618	114	14.194	0.000	   			0.000	96	1558.579	1.056	0.000	0.000	0	0	0.000	0.000
2	1.863	1.583	2.225	6330	468	13.512	0.000	   			0.963	414	362.316	1.034	2.427	0.000	0	0	0.000	0.000
3	3.170	2.858	3.308	10185	1201	8.482	0.000	   			2.340	3309	45.328	0.000	4.454	2.430	0	0	0.000	0.000
4	3.396	3.308	3.450	3799	478	7.951	0.000	 V 			2.578	216	695.262	0.000	0.395	1.102	0	0	0.000	0.000
5	3.525	3.450	3.567	3774	590	6.402	0.000	 V 			2.713	77	1937.694	0.000	0.102	1.053	0	0	0.000	0.000
6	3.609	3.567	3.683	3956	616	6.419	0.000	 V 			2.802	276	542.929	0.000	0.068	1.032	0	0	0.000	0.000
7	3.826	3.683	4.083	8825033	1222887	7.217	0.000	 V 			3.030	5966	25.143	1.485	0.407	1.082	0	0	0.000	0.000
8	4.202	4.083	4.658	3888094	532164	7.306	0.000	 V 			3.427	7664	19.573	1.394	1.928	1.131	0	0	0.000	0.000
9	4.822	4.658	5.283	1045020	133563	7.824	0.000	 V 			4.080	8656	17.328	1.119	3.106	1.191	0	0	0.000	0.000
10	5.513	5.283	7.642	6171835	729667	8.458	0.000	SV 			4.808	9329	16.079	1.215	3.172	1.178	0	0	0.000	0.000
11	7.007	6.858	7.408	1133	66	17.143	0.000	T  			6.382	3615	41.496	1.760	4.302	1.327	0	0	0.000	0.000

[Peak Table(AD2)]
# of Peaks	0

[Compound Results(Detector A)]
# of IDs	0

[Compound Results(AD2)]
# of IDs	0

[Group Results(Detector A)]
# of Groups	0

[Group Results(AD2)]
# of Groups	0

[LC Chromatogram(Detector A-Ch1)]
Interval(msec)	500
# of Points	1201
Start Time(min)	0.000
End Time(min)	10.000
Intensity Units	mV
Intensity Multiplier	0.001
Wavelength(nm)	260nm
R.Time (min)	Intensity
0.00000	-16
0.00833	-16
0.01667	-0
0.02500	-1
0.03333	-2
0.04167	-3
0.05000	-3
0.05833	-3
0.06667	-3
0.07500	-3
0.08333	-4
0.09167	-4
0.10000	-4
0.10833	-4
0.11667	-5
0.12500	-6
0.13333	-7
0.14167	-8
0.15000	-8
0.15833	-7
0.16667	-8
0.17500	-8
0.18333	-9
0.19167	-9
0.20000	-9
0.20833	-10
0.21667	-11
0.22500	-11
0.23333	-11
0.24167	-10
0.25000	-11
0.25833	-11
0.26667	-12
0.27500	-12
0.28333	-13
0.29167	-13
0.30000	-13
0.30833	-14
0.31667	-14
0.32500	-15
0.33333	-16
0.34167	-15
0.35000	-15
0.35833	-16
0.36667	-17
0.37500	-17
0.38333	-18
0.39167	-19
0.40000	-19
0.40833	-18
0.41667	-18
0.42500	-19
0.43333	-20
0.44167	-21
0.45000	-21
0.45833	-22
0.46667	-21
0.47500	-21
0.48333	-22
0.49167	-22
0.50000	-23
0.50833	-22
0.51667	-22
0.52500	-22
0.53333	-21
0.54167	-22
0.55000	-23
0.55833	-24
0.56667	-26
0.57500	-26
0.58333	-26
0.59167	-26
0.60000	-28
0.60833	-28
0.61667	-28
0.62500	-27
0.63333	-26
0.64167	-25
0.65000	-24
0.65833	-23
0.66667	-23
0.67500	-24
0.68333	-25
0.69167	-25
0.70000	-25
0.70833	-25
0.71667	-24
0.72500	-23
0.73333	-22
0.74167	-19
0.75000	-16
0.75833	-14
0.76667	-11
0.77500	-8
0.78333	-6
0.79167	-3
0.80000	2
0.80833	7
0.81667	12
0.82500	18
0.83333	24
0.84167	29
0.85000	35
0.85833	42
0.86667	49
0.87500	55
0.88333	61
0.89167	66
0.90000	70
0.90833	75
0.91667	78
0.92500	80
0.93333	81
0.94167	81
0.95000	82
0.95833	81
0.96667	79
0.97500	77
0.98333	75
0.99167	71
1.00000	66
1.00833	60
1.01667	55
1.02500	50
1.03333	45
1.04167	40
1.05000	34
1.05833	28
1.06667	21
1.07500	15
1.08333	10
1.09167	5
1.10000	0
1.10833	-5
1.11667	-10
1.12500	-14
1.13333	-18
1.14167	-21
1.15000	-24
1.15833	-26
1.16667	-27
1.17500	-30
1.18333	-33
1.19167	-35
1.20000	-37
1.20833	-38
1.21667	-39
1.22500	-40
1.23333	-40
1.24167	-39
1.25000	-39
1.25833	-39
1.26667	-40
1.27500	-41
1.28333	-42
1.29167	-42
1.30000	-40
1.30833	-40
1.31667	-41
1.32500	-42
1.33333	-42
1.34167	-43
1.35000	-43
1.35833	-43
1.36667	-43
1.37500	-44
1.38333	-44
1.39167	-44
1.40000	-44
1.40833	-44
1.41667	-44
1.42500	-43
1.43333	-43
1.44167	-44
1.45000	-44
1.45833	-46
1.46667	-47
1.47500	-47
1.48333	-48
1.49167	-47
1.50000	-47
1.50833	-47
1.51667	-46
1.52500	-46
1.53333	-46
1.54167	-46
1.55000	-47
1.55833	-48
1.56667	-48
1.57500	-48
1.58333	-47
1.59167	-45
1.60000	-44
1.60833	-42
1.61667	-41
1.62500	-39
1.63333	-37
1.64167	-32
1.65000	-26
1.65833	-19
1.66667	-12
1.67500	-2
1.68333	8
1.69167	20
1.70000	34
1.70833	50
1.71667	68
1.72500	88
1.73333	111
1.74167	134
1.75000	159
1.75833	185
1.76667	212
1.77500	238
1.78333	266
1.79167	293
1.80000	318
1.80833	342
1.81667	363
1.82500	379
1.83333	394
1.84167	405
1.85000	413
1.85833	417
1.86667	417
1.87500	413
1.88333	404
1.89167	392
1.90000	377
1.90833	359
1.91667	339
1.92500	317
1.93333	293
1.94167	268
1.95000	243
1.95833	218
1.96667	192
1.97500	168
1.98333	144
1.99167	122
2.00000	101
2.00833	81
2.01667	63
2.02500	47
2.03333	32
2.04167	19
2.05000	6
2.05833	-5
2.06667	-14
2.07500	-22
2.08333	-29
2.09167	-34
2.10000	-38
2.10833	-43
2.11667	-45
2.12500	-48
2.13333	-49
2.14167	-51
2.15000	-52
2.15833	-52
2.16667	-53
2.17500	-54
2.18333	-55
2.19167	-55
2.20000	-56
2.20833	-57
2.21667	-58
2.22500	-58
2.23333	-57
2.24167	-57
2.25000	-57
2.25833	-56
2.26667	-57
2.27500	-58
2.28333	-59
2.29167	-60
2.30000	-59
2.30833	-59
2.31667	-59
2.32500	-60
2.33333	-60
2.34167	-61
2.35000	-62
2.35833	-62
2.36667	-63
2.37500	-62
2.38333	-62
2.39167	-62
2.40000	-62
2.40833	-62
2.41667	-63
2.42500	-63
2.43333	-62
2.44167	-61
2.45000	-61
2.45833	-61
2.46667	-61
2.47500	-62
2.48333	-62
2.49167	-62
2.50000	-63
2.50833	-64
2.51667	-63
2.52500	-63
2.53333	-64
2.54167	-64
2.55000	-64
2.55833	-65
2.56667	-64
2.57500	-63
2.58333	-63
2.59167	-63
2.60000	-64
2.60833	-64
2.61667	-65
2.62500	-65
2.63333	-65
2.64167	-65
2.65000	-65
2.65833	-65
2.66667	-65
2.67500	-66
2.68333	-66
2.69167	-67
2.70000	-67
2.70833	-67
2.71667	-67
2.72500	-67
2.73333	-66
2.74167	-67
2.75000	-68
2.75833	-69
2.76667	-69
2.77500	-68
2.78333	-66
2.79167	-66
2.80000	-66
2.80833	-67
2.81667	-68
2.82500	-68
2.83333	-68
2.84167	-69
2.85000	-69
2.85833	-69
2.86667	-68
2.87500	-67
2.88333	-66
2.89167	-64
2.90000	-62
2.90833	-58
2.91667	-54
2.92500	-49
2.93333	-44
2.94167	-37
2.95000	-28
2.95833	-19
2.96667	-10
2.97500	-2
2.98333	6
2.99167	15
3.00000	22
3.00833	28
3.01667	34
3.02500	37
3.03333	41
3.04167	45
3.05000	49
3.05833	53
3.06667	60
3.07500	69
3.08333	84
3.09167	112
3.10000	160
3.10833	242
3.11667	366
3.12500	527
3.13333	705
3.14167	875
3.15000	1013
3.15833	1106
3.16667	1147
3.17500	1143
3.18333	1105
3.19167	1041
3.20000	964
3.20833	880
3.21667	796
3.22500	716
3.23333	643
3.24167	577
3.25000	519
3.25833	469
3.26667	427
3.27500	392
3.28333	366
3.29167	348
3.30000	338
3.30833	338
3.31667	345
3.32500	356
3.33333	368
3.34167	380
3.35000	391
3.35833	403
3.36667	414
3.37500	424
3.38333	430
3.39167	434
3.40000	435
3.40833	431
3.41667	424
3.42500	415
3.43333	406
3.44167	399
3.45000	396
3.45833	399
3.46667	410
3.47500	427
3.48333	450
3.49167	477
3.50000	503
3.50833	526
3.51667	544
3.52500	553
3.53333	554
3.54167	550
3.55000	545
3.55833	541
3.56667	542
3.57500	548
3.58333	558
3.59167	569
3.60000	579
3.60833	584
3.61667	580
3.62500	569
3.63333	552
3.64167	531
3.65000	510
3.65833	490
3.66667	473
3.67500	461
3.68333	459
3.69167	492
3.70000	653
3.70833	1267
3.71667	3279
3.72500	8987
3.73333	23000
3.74167	52868
3.75000	108357
3.75833	198586
3.76667	327523
3.77500	490131
3.78333	671734
3.79167	851525
3.80000	1008449
3.80833	1126584
3.81667	1198036
3.82500	1222865
3.83333	1207031
3.84167	1159440
3.85000	1089181
3.85833	1003735
3.86667	908550
3.87500	807694
3.88333	704818
3.89167	603664
3.90000	507921
3.90833	420696
3.91667	344044
3.92500	278821
3.93333	224829
3.94167	181132
3.95000	146384
3.95833	119105
3.96667	97856
3.97500	81356
3.98333	68521
3.99167	58482
4.00000	50557
4.00833	44229
4.01667	39107
4.02500	34904
4.03333	31412
4.04167	28476
4.05000	25986
4.05833	23876
4.06667	22123
4.07500	20787
4.08333	20077
4.09167	20492
4.10000	23031
4.10833	29422
4.11667	42217
4.12500	64555
4.13333	99408
4.14167	148403
4.15000	210646
4.15833	282131
4.16667	356149
4.17500	424637
4.18333	479990
4.19167	516677
4.20000	532160
4.20833	526963
4.21667	504043
4.22500	467797
4.23333	423060
4.24167	374318
4.25000	325230
4.25833	278452
4.26667	235670
4.27500	197754
4.28333	164966
4.29167	137154
4.30000	113917
4.30833	94727
4.31667	79019
4.32500	66241
4.33333	55885
4.34167	47505
4.35000	40722
4.35833	35220
4.36667	30740
4.37500	27074
4.38333	24053
4.39167	21545
4.40000	19448
4.40833	17678
4.41667	16174
4.42500	14883
4.43333	13765
4.44167	12791
4.45000	11935
4.45833	11179
4.46667	10506
4.47500	9903
4.48333	9359
4.49167	8867
4.50000	8423
4.50833	8018
4.51667	7648
4.52500	7309
4.53333	6996
4.54167	6706
4.55000	6439
4.55833	6191
4.56667	5960
4.57500	5743
4.58333	5540
4.59167	5351
4.60000	5174
4.60833	5008
4.61667	4857
4.62500	4719
4.63333	4598
4.64167	4498
4.65000	4427
4.65833	4400
4.66667	4443
4.67500	4602
4.68333	4949
4.69167	5596
4.70000	6708
4.70833	8510
4.71667	11286
4.72500	15368
4.73333	21094
4.74167	28755
4.75000	38518
4.75833	50345
4.76667	63922
4.77500	78623
4.78333	93526
4.79167	107501
4.80000	119370
4.80833	128091
4.81667	132934
4.82500	133589
4.83333	130194
4.84167	123271
4.85000	113616
4.85833	102150
4.86667	89789
4.87500	77333
4.88333	65415
4.89167	54473
4.90000	44763
4.90833	36387
4.91667	29331
4.92500	23505
4.93333	18778
4.94167	14998
4.95000	12013
4.95833	9680
4.96667	7873
4.97500	6484
4.98333	5422
4.99167	4610
5.00000	3991
5.00833	3519
5.01667	3156
5.02500	2873
5.03333	2650
5.04167	2472
5.05000	2326
5.05833	2206
5.06667	2104
5.07500	2018
5.08333	1942
5.09167	1875
5.10000	1816
5.10833	1764
5.11667	1716
5.12500	1674
5.13333	1634
5.14167	1598
5.15000	1565
5.15833	1536
5.16667	1509
5.17500	1483
5.18333	1458
5.19167	1433
5.20000	1409
5.20833	1386
5.21667	1363
5.22500	1340
5.23333	1318
5.24167	1297
5.25000	1279
5.25833	1262
5.26667	1248
5.27500	1240
5.28333	1239
5.29167	1248
5.30000	1272
5.30833	1320
5.31667	1409
5.32500	1565
5.33333	1835
5.34167	2294
5.35000	3083
5.35833	4432
5.36667	6718
5.37500	10528
5.38333	16731
5.39167	26534
5.40000	41485
5.40833	63387
5.41667	94092
5.42500	135146
5.43333	187345
5.44167	250313
5.45000	322219
5.45833	399772
5.46667	478517
5.47500	553403
5.48333	619457
5.49167	672435
5.50000	709292
5.50833	728435
5.51667	729726
5.52500	714308
5.53333	684316
5.54167	642540
5.55000	592090
5.55833	536100
5.56667	477495
5.57500	418828
5.58333	362175
5.59167	309095
5.60000	260640
5.60833	217403
5.61667	179589
5.62500	147101
5.63333	119630
5.64167	96722
5.65000	77855
5.65833	62483
5.66667	50075
5.67500	40142
5.68333	32243
5.69167	25997
5.70000	21078
5.70833	17217
5.71667	14191
5.72500	11821
5.73333	9960
5.74167	8496
5.75000	7338
5.75833	6416
5.76667	5678
5.77500	5081
5.78333	4594
5.79167	4190
5.80000	3851
5.80833	3563
5.81667	3316
5.82500	3101
5.83333	2913
5.84167	2747
5.85000	2599
5.85833	2466
5.86667	2348
5.87500	2242
5.88333	2149
5.89167	2068
5.90000	2000
5.90833	1945
5.91667	1898
5.92500	1861
5.93333	1831
5.94167	1807
5.95000	1786
5.95833	1766
5.96667	1743
5.97500	1717
5.98333	1687
5.99167	1653
6.00000	1613
6.00833	1571
6.01667	1524
6.02500	1474
6.03333	1422
6.04167	1370
6.05000	1319
6.05833	1268
6.06667	1222
6.07500	1178
6.08333	1138
6.09167	1101
6.10000	1067
6.10833	1036
6.11667	1007
6.12500	980
6.13333	957
6.14167	935
6.15000	914
6.15833	894
6.16667	874
6.17500	856
6.18333	839
6.19167	823
6.20000	806
6.20833	791
6.21667	778
6.22500	765
6.23333	753
6.24167	741
6.25000	729
6.25833	718
6.26667	707
6.27500	696
6.28333	685
6.29167	675
6.30000	665
6.30833	656
6.31667	648
6.32500	640
6.33333	631
6.34167	623
6.35000	615
6.35833	607
6.36667	600
6.37500	593
6.38333	586
6.39167	578
6.40000	570
6.40833	564
6.41667	559
6.42500	554
6.43333	549
6.44167	546
6.45000	543
6.45833	542
6.46667	542
6.47500	543
6.48333	545
6.49167	547
6.50000	550
6.50833	552
6.51667	554
6.52500	555
6.53333	558
6.54167	558
6.55000	555
6.55833	550
6.56667	542
6.57500	533
6.58333	524
6.59167	514
6.60000	503
6.60833	492
6.61667	480
6.62500	469
6.63333	457
6.64167	446
6.65000	435
6.65833	426
6.66667	418
6.67500	411
6.68333	405
6.69167	399
6.70000	393
6.70833	388
6.71667	384
6.72500	381
6.73333	378
6.74167	375
6.75000	371
6.75833	370
6.76667	368
6.77500	366
6.78333	364
6.79167	361
6.80000	358
6.80833	356
6.81667	353
6.82500	350
6.83333	349
6.84167	348
6.85000	347
6.85833	347
6.86667	347
6.87500	348
6.88333	349
6.89167	350
6.90000	352
6.90833	354
6.91667	356
6.92500	357
6.93333	359
6.94167	360
6.95000	362
6.95833	365
6.96667	366
6.97500	368
6.98333	370
6.99167	372
7.00000	372
7.00833	373
7.01667	372
7.02500	371
7.03333	369
7.04167	369
7.05000	367
7.05833	365
7.06667	363
7.07500	360
7.08333	356
7.09167	352
7.10000	349
7.10833	345
7.11667	339
7.12500	334
7.13333	328
7.14167	323
7.15000	320
7.15833	315
7.16667	311
7.17500	306
7.18333	302
7.19167	296
7.20000	292
7.20833	287
7.21667	283
7.22500	279
7.23333	275
7.24167	269
7.25000	265
7.25833	260
7.26667	255
7.27500	250
7.28333	246
7.29167	242
7.30000	238
7.30833	234
7.31667	229
7.32500	226
7.33333	223
7.34167	220
7.35000	217
7.35833	214
7.36667	211
7.37500	209
7.38333	207
7.39167	204
7.40000	200
7.40833	197
7.41667	196
7.42500	194
7.43333	192
7.44167	189
7.45000	188
7.45833	187
7.46667	187
7.47500	185
7.48333	182
7.49167	180
7.50000	178
7.50833	177
7.51667	176
7.52500	175
7.53333	173
7.54167	172
7.55000	170
7.55833	170
7.56667	169
7.57500	169
7.58333	168
7.59167	167
7.60000	165
7.60833	164
7.61667	163
7.62500	163
7.63333	162
7.64167	162
7.65000	162
7.65833	162
7.66667	162
7.67500	161
7.68333	160
7.69167	159
7.70000	158
7.70833	157
7.71667	157
7.72500	157
7.73333	156
7.74167	156
7.75000	155
7.75833	154
7.76667	153
7.77500	152
7.78333	151
7.79167	149
7.80000	147
7.80833	146
7.81667	146
7.82500	145
7.83333	145
7.84167	143
7.85000	143
7.85833	141
7.86667	140
7.87500	138
7.88333	136
7.89167	135
7.90000	134
7.90833	133
7.91667	133
7.92500	133
7.93333	131
7.94167	130
7.95000	128
7.95833	127
7.96667	127
7.97500	128
7.98333	128
7.99167	127
8.00000	126
8.00833	125
8.01667	124
8.02500	125
8.03333	124
8.04167	123
8.05000	121
8.05833	120
8.06667	120
8.07500	121
8.08333	122
8.09167	121
8.10000	120
8.10833	119
8.11667	119
8.12500	119
8.13333	119
8.14167	118
8.15000	118
8.15833	118
8.16667	117
8.17500	116
8.18333	116
8.19167	117
8.20000	116
8.20833	116
8.21667	115
8.22500	115
8.23333	115
8.24167	115
8.25000	114
8.25833	113
8.26667	112
8.27500	111
8.28333	110
8.29167	109
8.30000	108
8.30833	107
8.31667	105
8.32500	104
8.33333	102
8.34167	101
8.35000	99
8.35833	96
8.36667	94
8.37500	92
8.38333	91
8.39167	91
8.40000	91
8.40833	90
8.41667	89
8.42500	89
8.43333	90
8.44167	89
8.45000	88
8.45833	88
8.46667	88
8.47500	87
8.48333	87
8.49167	86
8.50000	85
8.50833	85
8.51667	85
8.52500	84
8.53333	83
8.54167	82
8.55000	82
8.55833	81
8.56667	81
8.57500	80
8.58333	79
8.59167	77
8.60000	76
8.60833	74
8.61667	73
8.62500	72
8.63333	71
8.64167	70
8.65000	70
8.65833	69
8.66667	67
8.67500	66
8.68333	66
8.69167	66
8.70000	65
8.70833	64
8.71667	63
8.72500	63
8.73333	61
8.74167	60
8.75000	58
8.75833	57
8.76667	56
8.77500	56
8.78333	56
8.79167	56
8.80000	56
8.80833	54
8.81667	52
8.82500	51
8.83333	51
8.84167	50
8.85000	50
8.85833	50
8.86667	50
8.87500	49
8.88333	49
8.89167	49
8.90000	48
8.90833	47
8.91667	47
8.92500	47
8.93333	46
8.94167	46
8.95000	46
8.95833	46
8.96667	45
8.97500	44
8.98333	42
8.99167	41
9.00000	39
9.00833	38
9.01667	37
9.02500	37
9.03333	37
9.04167	37
9.05000	36
9.05833	35
9.06667	34
9.07500	34
9.08333	33
9.09167	33
9.10000	33
9.10833	33
9.11667	33
9.12500	32
9.13333	32
9.14167	31
9.15000	29
9.15833	29
9.16667	28
9.17500	29
9.18333	29
9.19167	29
9.20000	28
9.20833	27
9.21667	25
9.22500	23
9.23333	23
9.24167	21
9.25000	21
9.25833	19
9.26667	19
9.27500	18
9.28333	19
9.29167	18
9.30000	16
9.30833	16
9.31667	15
9.32500	15
9.33333	15
9.34167	14
9.35000	14
9.35833	14
9.36667	14
9.37500	16
9.38333	17
9.39167	18
9.40000	18
9.40833	19
9.41667	20
9.42500	21
9.43333	20
9.44167	19
9.45000	19
9.45833	18
9.46667	17
9.47500	16
9.48333	15
9.49167	15
9.50000	14
9.50833	13
9.51667	13
9.52500	13
9.53333	12
9.54167	11
9.55000	9
9.55833	8
9.56667	7
9.57500	6
9.58333	6
9.59167	6
9.60000	6
9.60833	5
9.61667	4
9.62500	3
9.63333	3
9.64167	3
9.65000	2
9.65833	1
9.66667	-1
9.67500	-1
9.68333	-1
9.69167	-2
9.70000	-2
9.70833	-2
9.71667	-2
9.72500	-3
9.73333	-5
9.74167	-6
9.75000	-6
9.75833	-6
9.76667	-6
9.77500	-8
9.78333	-8
9.79167	-9
9.80000	-10
9.80833	-11
9.81667	-11
9.82500	-11
9.83333	-11
9.84167	-11
9.85000	-9
9.85833	-8
9.86667	-9
9.87500	-11
9.88333	-12
9.89167	-11
9.90000	-11
9.90833	-11
9.91667	-10
9.92500	-11
9.93333	-12
9.94167	-12
9.95000	-11
9.95833	-11
9.96667	-11
9.97500	-11
9.98333	-11
9.99167	-11
10.00000	-11

[LC Status Trace(Pump A Pressure)]
Interval(msec)	1000
# of Points	601
Start Time(min)	0.000
End Time(min)	10.000
Intensity Units	psi
Intensity Multiplier	14.2233
R.Time (min)	Intensity
0.00000	146.2
0.01667	146.2
0.03333	105.5
0.05000	115.0
0.06667	122.0
0.08333	124.9
0.10000	129.9
0.11667	133.5
0.13333	135.0
0.15000	137.6
0.16667	139.7
0.18333	140.4
0.20000	142.2
0.21667	142.7
0.23333	143.3
0.25000	144.0
0.26667	144.5
0.28333	144.9
0.30000	145.2
0.31667	145.4
0.33333	145.5
0.35000	145.8
0.36667	146.1
0.38333	146.1
0.40000	146.2
0.41667	146.2
0.43333	146.3
0.45000	146.5
0.46667	146.3
0.48333	146.5
0.50000	146.5
0.51667	146.5
0.53333	146.6
0.55000	146.5
0.56667	146.6
0.58333	146.5
0.60000	146.6
0.61667	146.5
0.63333	146.6
0.65000	146.6
0.66667	146.6
0.68333	146.6
0.70000	146.5
0.71667	146.6
0.73333	146.6
0.75000	146.6
0.76667	146.7
0.78333	146.5
0.80000	146.7
0.81667	146.5
0.83333	146.6
0.85000	146.6
0.86667	146.5
0.88333	146.7
0.90000	146.5
0.91667	146.5
0.93333	146.6
0.95000	146.6
0.96667	146.6
0.98333	146.6
1.00000	146.7
1.01667	146.6
1.03333	146.6
1.05000	146.6
1.06667	146.6
1.08333	146.6
1.10000	146.5
1.11667	146.6
1.13333	146.6
1.15000	146.6
1.16667	146.7
1.18333	146.6
1.20000	146.6
1.21667	146.6
1.23333	146.6
1.25000	146.6
1.26667	146.7
1.28333	146.5
1.30000	146.6
1.31667	146.7
1.33333	146.6
1.35000	146.6
1.36667	146.6
1.38333	146.6
1.40000	146.5
1.41667	146.5
1.43333	146.5
1.45000	146.5
1.46667	146.6
1.48333	146.5
1.50000	146.5
1.51667	146.5
1.53333	146.6
1.55000	146.5
1.56667	146.6
1.58333	146.6
1.60000	146.5
1.61667	146.6
1.63333	146.6
1.65000	146.6
1.66667	146.6
1.68333	146.6
1.70000	146.5
1.71667	146.6
1.73333	146.6
1.75000	146.6
1.76667	146.6
1.78333	146.6
1.80000	146.6
1.81667	146.5
1.83333	146.6
1.85000	146.6
1.86667	146.7
1.88333	146.6
1.90000	146.6
1.91667	146.7
1.93333	146.6
1.95000	146.6
1.96667	146.5
1.98333	146.5
2.00000	146.5
2.01667	146.6
2.03333	146.5
2.05000	146.6
2.06667	146.5
2.08333	146.6
2.10000	146.6
2.11667	146.7
2.13333	146.5
2.15000	146.5
2.16667	146.6
2.18333	146.6
2.20000	146.6
2.21667	146.6
2.23333	146.6
2.25000	146.6
2.26667	146.5
2.28333	146.6
2.30000	146.6
2.31667	146.6
2.33333	146.6
2.35000	146.6
2.36667	146.6
2.38333	146.6
2.40000	146.7
2.41667	146.6
2.43333	146.7
2.45000	146.7
2.46667	146.6
2.48333	146.5
2.50000	146.6
2.51667	146.5
2.53333	146.5
2.55000	146.5
2.56667	146.6
2.58333	146.6
2.60000	146.5
2.61667	146.6
2.63333	146.5
2.65000	146.6
2.66667	146.6
2.68333	146.5
2.70000	146.5
2.71667	146.6
2.73333	146.6
2.75000	146.7
2.76667	146.6
2.78333	146.5
2.80000	146.6
2.81667	146.5
2.83333	146.6
2.85000	146.6
2.86667	146.7
2.88333	146.6
2.90000	146.5
2.91667	146.5
2.93333	146.6
2.95000	146.5
2.96667	146.5
2.98333	146.5
3.00000	146.5
3.01667	146.5
3.03333	146.5
3.05000	146.6
3.06667	146.3
3.08333	146.3
3.10000	146.5
3.11667	146.5
3.13333	146.5
3.15000	146.6
3.16667	146.5
3.18333	146.6
3.20000	146.6
3.21667	146.6
3.23333	146.6
3.25000	146.7
3.26667	146.6
3.28333	146.5
3.30000	146.7
3.31667	146.6
3.33333	146.6
3.35000	146.6
3.36667	146.6
3.38333	146.7
3.40000	146.6
3.41667	146.6
3.43333	146.6
3.45000	146.6
3.46667	146.6
3.48333	146.6
3.50000	146.6
3.51667	146.6
3.53333	146.6
3.55000	146.5
3.56667	146.6
3.58333	146.6
3.60000	146.5
3.61667	146.6
3.63333	146.6
3.65000	146.7
3.66667	146.6
3.68333	146.5
3.70000	146.6
3.71667	146.5
3.73333	146.5
3.75000	146.5
3.76667	146.6
3.78333	146.5
3.80000	146.3
3.81667	146.5
3.83333	146.5
3.85000	146.6
3.86667	146.5
3.88333	146.5
3.90000	146.5
3.91667	146.5
3.93333	146.6
3.95000	146.5
3.96667	146.5
3.98333	146.5
4.00000	146.5
4.01667	146.5
4.03333	146.5
4.05000	146.5
4.06667	146.5
4.08333	146.5
4.10000	146.5
4.11667	146.5
4.13333	146.3
4.15000	146.5
4.16667	146.5
4.18333	146.5
4.20000	146.5
4.21667	146.5
4.23333	146.5
4.25000	146.5
4.26667	146.3
4.28333	146.3
4.30000	146.5
4.31667	146.5
4.33333	146.5
4.35000	146.5
4.36667	146.3
4.38333	146.6
4.40000	146.3
4.41667	146.5
4.43333	146.5
4.45000	146.5
4.46667	146.5
4.48333	146.3
4.50000	146.5
4.51667	146.5
4.53333	146.3
4.55000	146.5
4.56667	146.5
4.58333	146.3
4.60000	146.3
4.61667	146.5
4.63333	146.3
4.65000	146.6
4.66667	146.3
4.68333	146.3
4.70000	146.3
4.71667	146.5
4.73333	146.5
4.75000	146.5
4.76667	146.3
4.78333	146.5
4.80000	146.5
4.81667	146.5
4.83333	146.6
4.85000	146.5
4.86667	146.5
4.88333	146.3
4.90000	146.3
4.91667	146.5
4.93333	146.5
4.95000	146.5
4.96667	146.5
4.98333	146.5
5.00000	146.5
5.01667	146.5
5.03333	146.5
5.05000	146.5
5.06667	146.5
5.08333	146.5
5.10000	146.6
5.11667	146.5
5.13333	146.5
5.15000	146.3
5.16667	146.5
5.18333	146.5
5.20000	146.3
5.21667	146.5
5.23333	146.6
5.25000	146.2
5.26667	146.3
5.28333	146.3
5.30000	146.5
5.31667	146.3
5.33333	146.3
5.35000	146.3
5.36667	146.5
5.38333	146.3
5.40000	146.5
5.41667	146.3
5.43333	146.5
5.45000	146.5
5.46667	146.3
5.48333	146.3
5.50000	146.6
5.51667	146.3
5.53333	146.5
5.55000	146.5
5.56667	146.3
5.58333	146.5
5.60000	146.3
5.61667	146.3
5.63333	146.3
5.65000	146.3
5.66667	146.3
5.68333	146.3
5.70000	146.3
5.71667	146.3
5.73333	146.3
5.75000	146.3
5.76667	146.5
5.78333	146.5
5.80000	146.3
5.81667	146.5
5.83333	146.6
5.85000	146.5
5.86667	146.5
5.88333	146.5
5.90000	146.5
5.91667	146.5
5.93333	146.5
5.95000	146.6
5.96667	146.5
5.98333	146.5
6.00000	146.5
6.01667	146.5
6.03333	146.6
6.05000	146.6
6.06667	146.3
6.08333	146.5
6.10000	146.3
6.11667	146.5
6.13333	146.5
6.15000	146.3
6.16667	146.5
6.18333	146.5
6.20000	146.5
6.21667	146.5
6.23333	146.5
6.25000	146.3
6.26667	146.5
6.28333	146.5
6.30000	146.3
6.31667	146.5
6.33333	146.3
6.35000	146.5
6.36667	146.5
6.38333	146.5
6.40000	146.3
6.41667	146.5
6.43333	146.3
6.45000	146.5
6.46667	146.2
6.48333	146.5
6.50000	146.5
6.51667	146.3
6.53333	146.5
6.55000	146.5
6.56667	146.5
6.58333	146.5
6.60000	146.5
6.61667	146.6
6.63333	146.5
6.65000	146.5
6.66667	146.5
6.68333	146.5
6.70000	146.3
6.71667	146.5
6.73333	146.5
6.75000	146.3
6.76667	146.3
6.78333	146.3
6.80000	146.2
6.81667	146.5
6.83333	146.3
6.85000	146.5
6.86667	146.3
6.88333	146.3
6.90000	146.3
6.91667	146.5
6.93333	146.5
6.95000	146.3
6.96667	146.3
6.98333	146.5
7.00000	146.5
7.01667	146.5
7.03333	146.5
7.05000	146.3
7.06667	146.5
7.08333	146.5
7.10000	146.3
7.11667	146.5
7.13333	146.5
7.15000	146.3
7.16667	146.5
7.18333	146.5
7.20000	146.6
7.21667	146.5
7.23333	146.5
7.25000	146.6
7.26667	146.3
7.28333	146.5
7.30000	146.6
7.31667	146.5
7.33333	146.3
7.35000	146.5
7.36667	146.5
7.38333	146.6
7.40000	146.5
7.41667	146.6
7.43333	146.5
7.45000	146.5
7.46667	146.5
7.48333	146.6
7.50000	146.5
7.51667	146.6
7.53333	146.5
7.55000	146.5
7.56667	146.5
7.58333	146.5
7.60000	146.5
7.61667	146.6
7.63333	146.6
7.65000	146.5
7.66667	146.5
7.68333	146.7
7.70000	146.6
7.71667	146.6
7.73333	146.5
7.75000	146.6
7.76667	146.6
7.78333	146.5
7.80000	146.5
7.81667	146.6
7.83333	146.6
7.85000	146.6
7.86667	146.6
7.88333	146.5
7.90000	146.5
7.91667	146.5
7.93333	146.5
7.95000	146.7
7.96667	146.5
7.98333	146.5
8.00000	146.6
8.01667	146.6
8.03333	146.5
8.05000	146.6
8.06667	146.5
8.08333	146.6
8.10000	146.6
8.11667	146.6
8.13333	146.5
8.15000	146.5
8.16667	146.3
8.18333	146.6
8.20000	146.6
8.21667	146.6
8.23333	146.6
8.25000	146.6
8.26667	146.6
8.28333	146.5
8.30000	146.6
8.31667	146.5
8.33333	146.5
8.35000	146.5
8.36667	146.3
8.38333	146.5
8.40000	146.5
8.41667	146.3
8.43333	146.5
8.45000	146.3
8.46667	146.3
8.48333	146.5
8.50000	146.5
8.51667	146.5
8.53333	146.3
8.55000	146.5
8.56667	146.5
8.58333	146.5
8.60000	146.5
8.61667	146.6
8.63333	146.5
8.65000	146.5
8.66667	146.3
8.68333	146.5
8.70000	146.5
8.71667	146.5
8.73333	146.5
8.75000	146.5
8.76667	146.5
8.78333	146.5
8.80000	146.3
8.81667	146.5
8.83333	146.5
8.85000	146.3
8.86667	146.5
8.88333	146.5
8.90000	146.5
8.91667	146.3
8.93333	146.3
8.95000	146.3
8.96667	146.5
8.98333	146.3
9.00000	146.3
9.01667	146.3
9.03333	146.3
9.05000	146.5
9.06667	146.3
9.08333	146.3
9.10000	146.3
9.11667	146.5
9.13333	146.3
9.15000	146.5
9.16667	146.3
9.18333	146.6
9.20000	146.5
9.21667	146.3
9.23333	146.3
9.25000	146.5
9.26667	146.3
9.28333	146.5
9.30000	146.3
9.31667	146.3
9.33333	146.5
9.35000	146.3
9.36667	146.2
9.38333	146.3
9.40000	146.3
9.41667	146.5
9.43333	146.3
9.45000	146.3
9.46667	146.2
9.48333	146.3
9.50000	146.5
9.51667	146.3
9.53333	146.3
9.55000	146.2
9.56667	146.2
9.58333	146.3
9.60000	146.5
9.61667	146.3
9.63333	146.3
9.65000	146.3
9.66667	146.5
9.68333	146.5
9.70000	146.5
9.71667	146.5
9.73333	146.3
9.75000	146.3
9.76667	146.3
9.78333	146.3
9.80000	146.3
9.81667	146.5
9.83333	146.3
9.85000	146.2
9.86667	146.3
9.88333	146.3
9.90000	146.3
9.91667	146.3
9.93333	146.5
9.95000	146.5
9.96667	146.3
9.98333	146.3
10.00000	146.3

[LC Status Trace(Pump A Degasser Pressure)]
Interval(msec)	1000
# of Points	601
Start Time(min)	0.000
End Time(min)	10.000
Intensity Units	psi
Intensity Multiplier	14.2233
R.Time (min)	Intensity
0.00000	964.6
0.01667	964.6
0.03333	964.6
0.05000	964.6
0.06667	964.6
0.08333	964.6
0.10000	964.6
0.11667	964.6
0.13333	964.6
0.15000	964.6
0.16667	964.6
0.18333	964.6
0.20000	964.6
0.21667	964.6
0.23333	964.6
0.25000	964.6
0.26667	964.6
0.28333	964.6
0.30000	964.6
0.31667	964.6
0.33333	964.6
0.35000	964.6
0.36667	964.6
0.38333	964.6
0.40000	964.6
0.41667	964.6
0.43333	964.6
0.45000	964.6
0.46667	964.6
0.48333	964.6
0.50000	964.6
0.51667	964.6
0.53333	964.6
0.55000	964.6
0.56667	964.6
0.58333	964.6
0.60000	964.6
0.61667	964.6
0.63333	964.6
0.65000	964.6
0.66667	964.6
0.68333	964.6
0.70000	964.6
0.71667	964.6
0.73333	964.6
0.75000	964.6
0.76667	964.6
0.78333	964.6
0.80000	964.6
0.81667	964.6
0.83333	964.6
0.85000	964.6
0.86667	964.6
0.88333	964.6
0.90000	964.6
0.91667	964.6
0.93333	964.6
0.95000	964.6
0.96667	964.6
0.98333	964.6
1.00000	964.6
1.01667	964.6
1.03333	964.6
1.05000	964.6
1.06667	964.6
1.08333	964.6
1.10000	964.6
1.11667	964.6
1.13333	964.6
1.15000	964.6
1.16667	964.6
1.18333	964.6
1.20000	964.6
1.21667	964.6
1.23333	964.6
1.25000	964.6
1.26667	964.6
1.28333	964.6
1.30000	964.6
1.31667	964.6
1.33333	964.6
1.35000	964.6
1.36667	964.6
1.38333	964.6
1.40000	964.6
1.41667	964.6
1.43333	964.6
1.45000	964.6
1.46667	964.6
1.48333	964.6
1.50000	964.6
1.51667	964.6
1.53333	964.6
1.55000	964.6
1.56667	964.6
1.58333	964.6
1.60000	964.6
1.61667	964.6
1.63333	964.6
1.65000	964.6
1.66667	964.6
1.68333	964.6
1.70000	964.6
1.71667	964.6
1.73333	964.6
1.75000	964.6
1.76667	964.6
1.78333	964.6
1.80000	964.6
1.81667	964.6
1.83333	964.6
1.85000	964.6
1.86667	964.6
1.88333	964.6
1.90000	964.6
1.91667	964.6
1.93333	964.6
1.95000	964.6
1.96667	964.6
1.98333	964.6
2.00000	964.6
2.01667	964.6
2.03333	964.6
2.05000	964.6
2.06667	964.6
2.08333	964.6
2.10000	964.6
2.11667	964.6
2.13333	964.6
2.15000	964.6
2.16667	964.6
2.18333	964.6
2.20000	964.6
2.21667	964.6
2.23333	964.6
2.25000	964.6
2.26667	964.6
2.28333	964.6
2.30000	964.6
2.31667	964.6
2.33333	964.6
2.35000	964.6
2.36667	964.6
2.38333	964.6
2.40000	964.6
2.41667	964.6
2.43333	964.6
2.45000	964.6
2.46667	964.6
2.48333	964.6
2.50000	964.6
2.51667	964.6
2.53333	964.6
2.55000	964.6
2.56667	964.6
2.58333	964.6
2.60000	964.6
2.61667	964.6
2.63333	964.6
2.65000	964.6
2.66667	964.6
2.68333	964.6
2.70000	964.6
2.71667	964.6
2.73333	964.6
2.75000	964.6
2.76667	964.6
2.78333	964.6
2.80000	964.6
2.81667	964.6
2.83333	964.6
2.85000	964.6
2.86667	964.6
2.88333	964.6
2.90000	964.6
2.91667	964.6
2.93333	964.6
2.95000	964.6
2.96667	964.6
2.98333	964.6
3.00000	964.6
3.01667	964.6
3.03333	964.6
3.05000	964.6
3.06667	964.6
3.08333	964.6
3.10000	964.6
3.11667	964.6
3.13333	964.6
3.15000	964.6
3.16667	964.6
3.18333	964.6
3.20000	964.6
3.21667	964.6
3.23333	964.6
3.25000	964.6
3.26667	964.6
3.28333	964.6
3.30000	964.6
3.31667	964.6
3.33333	964.6
3.35000	964.6
3.36667	964.6
3.38333	964.6
3.40000	964.6
3.41667	964.6
3.43333	964.6
3.45000	964.6
3.46667	964.6
3.48333	964.6
3.50000	964.6
3.51667	964.6
3.53333	964.6
3.55000	964.6
3.56667	964.6
3.58333	964.6
3.60000	964.6
3.61667	964.6
3.63333	964.6
3.65000	964.6
3.66667	964.6
3.68333	964.6
3.70000	964.6
3.71667	964.6
3.73333	964.6
3.75000	964.6
3.76667	964.6
3.78333	964.6
3.80000	964.6
3.81667	964.6
3.83333	964.6
3.85000	964.6
3.86667	964.6
3.88333	964.6
3.90000	964.6
3.91667	964.6
3.93333	964.6
3.95000	964.6
3.96667	964.6
3.98333	964.6
4.00000	964.6
4.01667	964.6
4.03333	964.6
4.05000	964.6
4.06667	964.6
4.08333	964.6
4.10000	964.6
4.11667	964.6
4.13333	964.6
4.15000	964.6
4.16667	964.6
4.18333	964.6
4.20000	964.6
4.21667	964.6
4.23333	964.6
4.25000	964.6
4.26667	964.6
4.28333	964.6
4.30000	964.6
4.31667	964.6
4.33333	964.6
4.35000	964.6
4.36667	964.6
4.38333	964.6
4.40000	964.6
4.41667	964.6
4.43333	964.6
4.45000	964.6
4.46667	964.6
4.48333	964.6
4.50000	964.6
4.51667	964.6
4.53333	964.6
4.55000	964.6
4.56667	964.6
4.58333	964.6
4.60000	964.6
4.61667	964.6
4.63333	964.6
4.65000	964.6
4.66667	964.6
4.68333	964.6
4.70000	964.6
4.71667	964.6
4.73333	964.6
4.75000	964.6
4.76667	964.6
4.78333	964.6
4.80000	964.6
4.81667	964.6
4.83333	964.6
4.85000	964.6
4.86667	964.6
4.88333	964.6
4.90000	964.6
4.91667	964.6
4.93333	964.6
4.95000	964.6
4.96667	964.6
4.98333	964.6
5.00000	964.6
5.01667	964.6
5.03333	964.6
5.05000	964.6
5.06667	964.6
5.08333	964.6
5.10000	964.6
5.11667	964.6
5.13333	964.6
5.15000	964.6
5.16667	964.6
5.18333	964.6
5.20000	964.6
5.21667	964.6
5.23333	964.6
5.25000	964.6
5.26667	964.6
5.28333	964.6
5.30000	964.6
5.31667	964.6
5.33333	964.6
5.35000	964.6
5.36667	964.6
5.38333	964.6
5.40000	964.6
5.41667	964.6
5.43333	964.6
5.45000	964.6
5.46667	964.6
5.48333	964.6
5.50000	964.6
5.51667	964.6
5.53333	964.6
5.55000	964.6
5.56667	964.6
5.58333	964.6
5.60000	964.6
5.61667	964.6
5.63333	964.6
5.65000	964.6
5.66667	964.6
5.68333	964.6
5.70000	964.6
5.71667	964.6
5.73333	964.6
5.75000	964.6
5.76667	964.6
5.78333	964.6
5.80000	964.6
5.81667	964.6
5.83333	964.6
5.85000	964.6
5.86667	964.6
5.88333	964.6
5.90000	964.6
5.91667	964.6
5.93333	964.6
5.95000	964.6
5.96667	964.6
5.98333	964.6
6.00000	964.6
6.01667	964.6
6.03333	964.6
6.05000	964.6
6.06667	964.6
6.08333	964.6
6.10000	964.6
6.11667	964.6
6.13333	964.6
6.15000	964.6
6.16667	964.6
6.18333	964.6
6.20000	964.6
6.21667	964.6
6.23333	964.6
6.25000	964.6
6.26667	964.6
6.28333	964.6
6.30000	964.6
6.31667	964.6
6.33333	964.6
6.35000	964.6
6.36667	964.6
6.38333	964.6
6.40000	964.6
6.41667	964.6
6.43333	964.6
6.45000	964.6
6.46667	964.6
6.48333	964.6
6.50000	964.6
6.51667	964.6
6.53333	964.6
6.55000	964.6
6.56667	964.6
6.58333	964.6
6.60000	964.6
6.61667	964.6
6.63333	964.6
6.65000	964.6
6.66667	964.6
6.68333	964.6
6.70000	964.6
6.71667	964.6
6.73333	964.6
6.75000	964.6
6.76667	964.6
6.78333	964.6
6.80000	964.6
6.81667	964.6
6.83333	964.6
6.85000	964.6
6.86667	964.6
6.88333	964.6
6.90000	964.6
6.91667	964.6
6.93333	964.6
6.95000	964.6
6.96667	964.6
6.98333	964.6
7.00000	964.6
7.01667	964.6
7.03333	964.6
7.05000	964.6
7.06667	964.6
7.08333	964.6
7.10000	964.6
7.11667	964.6
7.13333	964.6
7.15000	964.6
7.16667	964.6
7.18333	964.6
7.20000	964.6
7.21667	964.6
7.23333	964.6
7.25000	964.6
7.26667	964.6
7.28333	964.6
7.30000	964.6
7.31667	964.6
7.33333	964.6
7.35000	964.6
7.36667	964.6
7.38333	964.6
7.40000	964.6
7.41667	964.6
7.43333	964.6
7.45000	964.6
7.46667	964.6
7.48333	964.6
7.50000	964.6
7.51667	964.6
7.53333	964.6
7.55000	964.6
7.56667	964.6
7.58333	964.6
7.60000	964.6
7.61667	964.6
7.63333	964.6
7.65000	964.6
7.66667	964.6
7.68333	964.6
7.70000	964.6
7.71667	964.6
7.73333	964.6
7.75000	964.6
7.76667	964.6
7.78333	964.6
7.80000	964.6
7.81667	964.6
7.83333	964.6
7.85000	964.6
7.86667	964.6
7.88333	964.6
7.90000	964.6
7.91667	964.6
7.93333	964.6
7.95000	964.6
7.96667	964.6
7.98333	964.6
8.00000	964.6
8.01667	964.6
8.03333	964.6
8.05000	964.6
8.06667	964.6
8.08333	964.6
8.10000	964.6
8.11667	964.6
8.13333	964.6
8.15000	964.6
8.16667	964.6
8.18333	964.6
8.20000	964.6
8.21667	964.6
8.23333	964.6
8.25000	964.6
8.26667	964.6
8.28333	964.6
8.30000	964.6
8.31667	964.6
8.33333	964.6
8.35000	964.6
8.36667	964.6
8.38333	964.6
8.40000	964.6
8.41667	964.6
8.43333	964.6
8.45000	964.6
8.46667	964.6
8.48333	964.6
8.50000	964.6
8.51667	964.6
8.53333	964.6
8.55000	964.6
8.56667	964.6
8.58333	964.6
8.60000	964.6
8.61667	964.6
8.63333	964.6
8.65000	964.6
8.66667	964.6
8.68333	964.6
8.70000	964.6
8.71667	964.6
8.73333	964.6
8.75000	964.6
8.76667	964.6
8.78333	964.6
8.80000	964.6
8.81667	964.6
8.83333	964.6
8.85000	964.6
8.86667	964.6
8.88333	964.6
8.90000	964.6
8.91667	964.6
8.93333	964.6
8.95000	964.6
8.96667	964.6
8.98333	964.6
9.00000	964.6
9.01667	964.6
9.03333	964.6
9.05000	964.6
9.06667	964.6
9.08333	964.6
9.10000	964.6
9.11667	964.6
9.13333	964.6
9.15000	964.6
9.16667	964.6
9.18333	964.6
9.20000	964.6
9.21667	964.6
9.23333	964.6
9.25000	964.6
9.26667	964.6
9.28333	964.6
9.30000	964.6
9.31667	964.6
9.33333	964.6
9.35000	964.6
9.36667	964.6
9.38333	964.6
9.40000	964.6
9.41667	964.6
9.43333	964.6
9.45000	964.6
9.46667	964.6
9.48333	964.6
9.50000	964.6
9.51667	964.6
9.53333	964.6
9.55000	964.6
9.56667	964.6
9.58333	965.6
9.60000	965.6
9.61667	965.6
9.63333	965.6
9.65000	965.6
9.66667	965.6
9.68333	965.6
9.70000	965.6
9.71667	965.6
9.73333	965.6
9.75000	965.6
9.76667	965.6
9.78333	965.6
9.80000	965.6
9.81667	965.6
9.83333	965.6
9.85000	965.6
9.86667	965.6
9.88333	965.6
9.90000	965.6
9.91667	965.6
9.93333	965.6
9.95000	965.6
9.96667	965.6
9.98333	965.6
10.00000	965.6

[LC Status Trace(RF A Cell Temp.)]
Interval(msec)	1000
# of Points	601
Start Time(min)	0.000
End Time(min)	10.000
Intensity Units	C
Intensity Multiplier	1
R.Time (min)	Intensity
0.00000	39.93
0.01667	39.93
0.03333	39.96
0.05000	39.96
0.06667	40.00
0.08333	40.00
0.10000	40.00
0.11667	40.05
0.13333	40.03
0.15000	40.03
0.16667	40.03
0.18333	40.09
0.20000	40.09
0.21667	40.07
0.23333	40.05
0.25000	40.06
0.26667	40.07
0.28333	40.08
0.30000	40.08
0.31667	40.00
0.33333	40.00
0.35000	39.99
0.36667	39.97
0.38333	39.98
0.40000	39.98
0.41667	40.00
0.43333	39.97
0.45000	39.98
0.46667	40.00
0.48333	40.00
0.50000	40.03
0.51667	40.00
0.53333	39.99
0.55000	40.00
0.56667	40.02
0.58333	40.00
0.60000	40.00
0.61667	40.00
0.63333	39.99
0.65000	40.00
0.66667	39.99
0.68333	40.00
0.70000	40.00
0.71667	40.00
0.73333	40.00
0.75000	40.00
0.76667	39.97
0.78333	39.91
0.80000	39.91
0.81667	39.98
0.83333	39.95
0.85000	40.00
0.86667	40.00
0.88333	39.99
0.90000	40.02
0.91667	40.02
0.93333	40.00
0.95000	40.00
0.96667	40.00
0.98333	39.99
1.00000	40.02
1.01667	40.02
1.03333	40.02
1.05000	40.00
1.06667	40.00
1.08333	40.02
1.10000	40.03
1.11667	40.00
1.13333	39.93
1.15000	39.93
1.16667	39.93
1.18333	39.97
1.20000	39.99
1.21667	40.00
1.23333	40.00
1.25000	40.02
1.26667	40.03
1.28333	40.03
1.30000	40.03
1.31667	40.02
1.33333	40.00
1.35000	40.00
1.36667	40.00
1.38333	40.03
1.40000	40.03
1.41667	40.00
1.43333	40.00
1.45000	40.00
1.46667	40.00
1.48333	39.96
1.50000	39.93
1.51667	39.90
1.53333	39.96
1.55000	39.99
1.56667	40.00
1.58333	39.99
1.60000	40.00
1.61667	40.00
1.63333	40.00
1.65000	40.00
1.66667	40.00
1.68333	40.00
1.70000	40.00
1.71667	40.00
1.73333	40.00
1.75000	40.00
1.76667	40.02
1.78333	40.07
1.80000	40.02
1.81667	40.03
1.83333	40.02
1.85000	40.00
1.86667	40.02
1.88333	40.00
1.90000	40.00
1.91667	40.00
1.93333	40.00
1.95000	40.00
1.96667	40.00
1.98333	39.99
2.00000	40.00
2.01667	39.96
2.03333	40.00
2.05000	39.99
2.06667	39.97
2.08333	39.97
2.10000	39.98
2.11667	39.96
2.13333	39.93
2.15000	39.95
2.16667	39.99
2.18333	39.96
2.20000	39.95
2.21667	39.93
2.23333	39.93
2.25000	39.96
2.26667	39.93
2.28333	39.93
2.30000	39.97
2.31667	39.97
2.33333	39.95
2.35000	39.93
2.36667	39.93
2.38333	39.95
2.40000	39.98
2.41667	39.93
2.43333	39.96
2.45000	39.93
2.46667	39.93
2.48333	39.93
2.50000	39.93
2.51667	39.93
2.53333	39.95
2.55000	39.93
2.56667	39.91
2.58333	39.93
2.60000	39.95
2.61667	39.98
2.63333	39.97
2.65000	39.95
2.66667	39.97
2.68333	39.99
2.70000	40.00
2.71667	40.05
2.73333	40.02
2.75000	40.00
2.76667	40.00
2.78333	40.00
2.80000	40.00
2.81667	40.00
2.83333	40.00
2.85000	40.00
2.86667	39.99
2.88333	40.03
2.90000	40.03
2.91667	40.05
2.93333	40.05
2.95000	40.00
2.96667	40.00
2.98333	40.00
3.00000	39.98
3.01667	39.97
3.03333	39.97
3.05000	39.99
3.06667	40.00
3.08333	40.03
3.10000	40.05
3.11667	40.03
3.13333	40.03
3.15000	40.00
3.16667	40.00
3.18333	40.00
3.20000	40.00
3.21667	39.99
3.23333	40.00
3.25000	40.00
3.26667	40.00
3.28333	39.99
3.30000	39.97
3.31667	39.96
3.33333	40.00
3.35000	40.00
3.36667	40.00
3.38333	40.00
3.40000	40.03
3.41667	40.02
3.43333	40.00
3.45000	40.00
3.46667	40.00
3.48333	40.02
3.50000	40.00
3.51667	40.00
3.53333	39.99
3.55000	40.00
3.56667	40.00
3.58333	39.95
3.60000	39.93
3.61667	40.00
3.63333	40.02
3.65000	40.03
3.66667	40.00
3.68333	40.05
3.70000	40.00
3.71667	40.00
3.73333	40.00
3.75000	40.05
3.76667	40.00
3.78333	40.00
3.80000	40.00
3.81667	40.00
3.83333	40.02
3.85000	40.00
3.86667	40.00
3.88333	39.98
3.90000	39.96
3.91667	39.95
3.93333	39.99
3.95000	39.99
3.96667	39.99
3.98333	40.00
4.00000	40.00
4.01667	40.06
4.03333	40.03
4.05000	40.00
4.06667	39.99
4.08333	40.02
4.10000	39.98
4.11667	39.98
4.13333	39.96
4.15000	39.93
4.16667	39.95
4.18333	40.00
4.20000	40.00
4.21667	40.03
4.23333	40.06
4.25000	40.00
4.26667	40.02
4.28333	39.99
4.30000	40.00
4.31667	40.00
4.33333	40.02
4.35000	40.03
4.36667	40.06
4.38333	40.00
4.40000	40.00
4.41667	40.00
4.43333	40.00
4.45000	40.03
4.46667	40.03
4.48333	40.00
4.50000	40.00
4.51667	40.00
4.53333	40.00
4.55000	40.00
4.56667	39.99
4.58333	40.00
4.60000	40.00
4.61667	39.99
4.63333	40.00
4.65000	40.00
4.66667	40.00
4.68333	40.00
4.70000	40.00
4.71667	39.99
4.73333	40.00
4.75000	40.02
4.76667	40.00
4.78333	40.00
4.80000	40.00
4.81667	40.00
4.83333	40.00
4.85000	39.99
4.86667	40.00
4.88333	40.00
4.90000	40.00
4.91667	40.00
4.93333	39.99
4.95000	39.99
4.96667	39.98
4.98333	39.96
5.00000	39.96
5.01667	39.97
5.03333	40.00
5.05000	40.00
5.06667	40.00
5.08333	40.02
5.10000	40.00
5.11667	40.00
5.13333	40.00
5.15000	40.00
5.16667	40.00
5.18333	40.03
5.20000	40.00
5.21667	40.00
5.23333	40.00
5.25000	40.02
5.26667	40.02
5.28333	40.00
5.30000	39.95
5.31667	39.93
5.33333	39.93
5.35000	39.93
5.36667	40.00
5.38333	40.00
5.40000	39.99
5.41667	40.00
5.43333	40.00
5.45000	40.00
5.46667	40.00
5.48333	40.02
5.50000	40.06
5.51667	40.02
5.53333	40.00
5.55000	40.00
5.56667	40.00
5.58333	40.06
5.60000	40.05
5.61667	40.00
5.63333	40.00
5.65000	40.03
5.66667	40.02
5.68333	40.00
5.70000	40.02
5.71667	40.00
5.73333	40.00
5.75000	39.99
5.76667	39.93
5.78333	39.91
5.80000	39.96
5.81667	39.98
5.83333	39.97
5.85000	39.99
5.86667	39.96
5.88333	39.99
5.90000	40.00
5.91667	40.00
5.93333	40.00
5.95000	40.03
5.96667	40.06
5.98333	40.03
6.00000	40.06
6.01667	40.05
6.03333	40.00
6.05000	40.00
6.06667	40.02
6.08333	40.00
6.10000	40.00
6.11667	40.02
6.13333	40.00
6.15000	40.00
6.16667	40.00
6.18333	40.02
6.20000	40.00
6.21667	39.99
6.23333	40.02
6.25000	40.02
6.26667	40.02
6.28333	40.00
6.30000	40.02
6.31667	40.07
6.33333	40.05
6.35000	39.99
6.36667	39.99
6.38333	40.00
6.40000	39.99
6.41667	40.00
6.43333	40.02
6.45000	40.00
6.46667	39.99
6.48333	40.00
6.50000	40.07
6.51667	40.06
6.53333	40.03
6.55000	40.00
6.56667	40.00
6.58333	40.00
6.60000	40.00
6.61667	40.00
6.63333	40.00
6.65000	39.99
6.66667	40.00
6.68333	39.99
6.70000	40.02
6.71667	40.00
6.73333	40.00
6.75000	40.00
6.76667	40.00
6.78333	40.00
6.80000	40.00
6.81667	40.00
6.83333	39.99
6.85000	40.00
6.86667	40.00
6.88333	40.02
6.90000	40.00
6.91667	40.00
6.93333	40.00
6.95000	39.99
6.96667	40.00
6.98333	40.00
7.00000	39.99
7.01667	39.99
7.03333	40.00
7.05000	40.00
7.06667	40.00
7.08333	40.00
7.10000	40.00
7.11667	40.00
7.13333	40.00
7.15000	40.02
7.16667	40.00
7.18333	40.00
7.20000	40.06
7.21667	40.05
7.23333	40.00
7.25000	40.05
7.26667	40.00
7.28333	40.00
7.30000	40.00
7.31667	39.99
7.33333	40.02
7.35000	40.00
7.36667	40.02
7.38333	40.02
7.40000	40.02
7.41667	40.02
7.43333	40.02
7.45000	40.00
7.46667	40.00
7.48333	40.00
7.50000	40.00
7.51667	40.00
7.53333	39.99
7.55000	39.99
7.56667	40.00
7.58333	39.99
7.60000	40.00
7.61667	40.00
7.63333	39.98
7.65000	39.98
7.66667	39.99
7.68333	40.00
7.70000	39.98
7.71667	39.97
7.73333	39.99
7.75000	39.99
7.76667	39.98
7.78333	39.95
7.80000	39.95
7.81667	39.93
7.83333	39.93
7.85000	39.93
7.86667	39.93
7.88333	39.98
7.90000	39.99
7.91667	40.00
7.93333	39.99
7.95000	40.02
7.96667	40.02
7.98333	39.99
8.00000	40.00
8.01667	40.00
8.03333	39.99
8.05000	39.96
8.06667	39.98
8.08333	39.98
8.10000	40.00
8.11667	40.00
8.13333	39.99
8.15000	39.98
8.16667	39.99
8.18333	39.99
8.20000	39.97
8.21667	39.93
8.23333	39.93
8.25000	39.97
8.26667	39.95
8.28333	39.98
8.30000	39.99
8.31667	39.99
8.33333	40.03
8.35000	40.05
8.36667	40.00
8.38333	39.99
8.40000	40.00
8.41667	40.03
8.43333	40.05
8.45000	39.99
8.46667	39.99
8.48333	40.03
8.50000	39.99
8.51667	39.99
8.53333	39.99
8.55000	40.00
8.56667	40.00
8.58333	40.00
8.60000	40.00
8.61667	40.00
8.63333	40.02
8.65000	39.96
8.66667	39.93
8.68333	39.95
8.70000	39.95
8.71667	39.97
8.73333	40.00
8.75000	40.03
8.76667	40.06
8.78333	40.00
8.80000	40.02
8.81667	40.00
8.83333	40.00
8.85000	40.00
8.86667	40.00
8.88333	40.00
8.90000	40.00
8.91667	40.00
8.93333	40.00
8.95000	40.03
8.96667	40.02
8.98333	40.05
9.00000	40.05
9.01667	40.00
9.03333	40.00
9.05000	40.02
9.06667	40.05
9.08333	40.00
9.10000	40.00
9.11667	40.02
9.13333	40.02
9.15000	40.00
9.16667	40.00
9.18333	40.00
9.20000	40.00
9.21667	40.00
9.23333	40.03
9.25000	39.99
9.26667	39.99
9.28333	40.02
9.30000	40.00
9.31667	40.00
9.33333	40.00
9.35000	40.02
9.36667	40.02
9.38333	40.00
9.40000	40.00
9.41667	40.00
9.43333	40.02
9.45000	40.00
9.46667	39.99
9.48333	39.99
9.50000	40.02
9.51667	40.02
9.53333	40.02
9.55000	40.00
9.56667	40.02
9.58333	40.06
9.60000	40.05
9.61667	40.05
9.63333	40.00
9.65000	40.02
9.66667	40.03
9.68333	40.00
9.70000	40.02
9.71667	40.02
9.73333	40.00
9.75000	40.00
9.76667	40.00
9.78333	40.00
9.80000	40.00
9.81667	40.00
9.83333	40.00
9.85000	40.00
9.86667	40.00
9.88333	40.00
9.90000	40.00
9.91667	40.00
9.93333	39.99
9.95000	39.97
9.96667	39.99
9.98333	39.98
10.00000	39.98

[Fraction Collection Report]
# of Fractions	0
