[Header]
Application Name	LabSolutions
Version	5.81 SP1
Data File Name	C:\LabSolutions\Data\Shangwen\20170529__Assay1_002.lcd
Output Date	5/29/2017
Output Time	3:33:27 PM

[File Information]
Type	Data File
Generated	5/29/2017 10:49:23 AM
Generated by	System Administrator
Modified	5/29/2017 10:59:48 AM
Modified by	System Administrator

[Sample Information]
Operator Name	System Administrator
Acquired	5/29/2017 10:49:46 AM
Sample Type	0:Unknown
Level	0
Sample Name	Assay1
Sample ID	002
ISTD Amount1	1
ISTD Amount2	1
ISTD Amount3	1
ISTD Amount4	1
ISTD Amount5	1
ISTD Amount6	1
ISTD Amount7	1
ISTD Amount8	1
ISTD Amount9	1
ISTD Amount10	1
ISTD Amount11	1
ISTD Amount12	1
ISTD Amount13	1
ISTD Amount14	1
ISTD Amount15	1
ISTD Amount16	1
ISTD Amount17	1
ISTD Amount18	1
ISTD Amount19	1
ISTD Amount20	1
ISTD Amount21	1
ISTD Amount22	1
ISTD Amount23	1
ISTD Amount24	1
ISTD Amount25	1
ISTD Amount26	1
ISTD Amount27	1
ISTD Amount28	1
ISTD Amount29	1
ISTD Amount30	1
ISTD Amount31	1
ISTD Amount32	1
Sample Amount	1
Dilution Factor	1
Vial#	94
Injection Volume	10

[Original Files]
Data File	C:\LabSolutions\Data\Shangwen\20170524__Assay1_002.lcd
Method File	C:\LabSolutions\Data\Shangwen\20170524_ATPAMP.lcm
Batch File	C:\LabSolutions\Data\Shangwen\20170524_batch2.lcb
Report Format File	c:\LabSolutions\System\DEFAULT.lsr

[File Description]


[Configuration]
Instrument Name	NAIR-HPLC-Instrument1
Instrument #	1
Line #	1
# of Detectors	2
Detector ID	Detector A	AD2
Detector Name	Detector A	ELSD
# of Channels	1	1

[Peak Table(Detector A)]
# of Peaks	8
Peak#	R.Time	I.Time	F.Time	Area	Height	A/H	Conc.	Mark	ID#	Name	k'	Plate #	Plate Ht.	Tailing	Resolution	Sep.Factor	Area Ratio	Height Ratio	Conc. %	Norm Conc.
1	1.899	1.675	2.175	1018	78	13.066	0.000	   			0.000	466	321.758	1.077	0.000	0.000	0	0	0.000	0.000
2	3.195	2.892	3.308	8289	704	11.770	0.000	   			0.683	745	201.388	0.000	3.162	0.000	0	0	0.000	0.000
3	3.412	3.308	3.475	6073	679	8.941	0.000	 V 			0.797	306	490.628	0.000	0.348	1.167	0	0	0.000	0.000
4	3.651	3.475	3.692	9523	864	11.025	0.000	 V 			0.923	106	1419.173	0.000	0.217	1.158	0	0	0.000	0.000
5	3.901	3.692	9.392	27958187	3602403	7.761	0.000	SV 			1.054	5997	25.014	0.925	0.308	1.143	0	0	0.000	0.000
6	4.187	4.125	4.325	115455	21820	5.291	0.000	T  			1.205	11452	13.098	1.460	1.600	1.143	0	0	0.000	0.000
7	4.727	4.650	4.900	12334	1722	7.164	0.000	T  			1.490	8696	17.250	1.481	3.006	1.236	0	0	0.000	0.000
8	5.489	5.350	5.817	28533	3472	8.218	0.000	T  			1.891	9105	16.475	1.219	3.520	1.269	0	0	0.000	0.000

[Peak Table(AD2)]
# of Peaks	0

[Compound Results(Detector A)]
# of IDs	0

[Compound Results(AD2)]
# of IDs	0

[Group Results(Detector A)]
# of Groups	0

[Group Results(AD2)]
# of Groups	0

[LC Chromatogram(Detector A-Ch1)]
Interval(msec)	500
# of Points	1201
Start Time(min)	0.000
End Time(min)	10.000
Intensity Units	mV
Intensity Multiplier	0.001
Wavelength(nm)	260nm
R.Time (min)	Intensity
0.00000	-20
0.00833	-20
0.01667	-1
0.02500	-2
0.03333	-3
0.04167	-3
0.05000	-2
0.05833	-2
0.06667	-2
0.07500	-3
0.08333	-4
0.09167	-4
0.10000	-4
0.10833	-5
0.11667	-7
0.12500	-7
0.13333	-7
0.14167	-6
0.15000	-6
0.15833	-6
0.16667	-5
0.17500	-6
0.18333	-5
0.19167	-5
0.20000	-6
0.20833	-6
0.21667	-8
0.22500	-9
0.23333	-10
0.24167	-12
0.25000	-13
0.25833	-14
0.26667	-14
0.27500	-13
0.28333	-14
0.29167	-16
0.30000	-17
0.30833	-18
0.31667	-19
0.32500	-19
0.33333	-20
0.34167	-21
0.35000	-21
0.35833	-21
0.36667	-21
0.37500	-22
0.38333	-23
0.39167	-24
0.40000	-25
0.40833	-24
0.41667	-25
0.42500	-25
0.43333	-27
0.44167	-28
0.45000	-29
0.45833	-29
0.46667	-30
0.47500	-31
0.48333	-33
0.49167	-34
0.50000	-34
0.50833	-33
0.51667	-34
0.52500	-35
0.53333	-36
0.54167	-37
0.55000	-39
0.55833	-39
0.56667	-40
0.57500	-41
0.58333	-40
0.59167	-40
0.60000	-41
0.60833	-40
0.61667	-41
0.62500	-42
0.63333	-42
0.64167	-43
0.65000	-45
0.65833	-45
0.66667	-45
0.67500	-45
0.68333	-46
0.69167	-46
0.70000	-46
0.70833	-47
0.71667	-47
0.72500	-47
0.73333	-48
0.74167	-48
0.75000	-49
0.75833	-49
0.76667	-50
0.77500	-51
0.78333	-52
0.79167	-53
0.80000	-53
0.80833	-55
0.81667	-56
0.82500	-56
0.83333	-56
0.84167	-55
0.85000	-56
0.85833	-56
0.86667	-57
0.87500	-58
0.88333	-58
0.89167	-59
0.90000	-59
0.90833	-60
0.91667	-62
0.92500	-63
0.93333	-64
0.94167	-65
0.95000	-66
0.95833	-66
0.96667	-65
0.97500	-64
0.98333	-65
0.99167	-65
1.00000	-66
1.00833	-66
1.01667	-67
1.02500	-67
1.03333	-67
1.04167	-67
1.05000	-68
1.05833	-69
1.06667	-69
1.07500	-69
1.08333	-70
1.09167	-70
1.10000	-70
1.10833	-70
1.11667	-69
1.12500	-69
1.13333	-69
1.14167	-69
1.15000	-70
1.15833	-70
1.16667	-71
1.17500	-71
1.18333	-71
1.19167	-71
1.20000	-72
1.20833	-72
1.21667	-73
1.22500	-73
1.23333	-73
1.24167	-73
1.25000	-72
1.25833	-72
1.26667	-72
1.27500	-72
1.28333	-73
1.29167	-73
1.30000	-73
1.30833	-74
1.31667	-74
1.32500	-74
1.33333	-74
1.34167	-75
1.35000	-76
1.35833	-76
1.36667	-76
1.37500	-76
1.38333	-77
1.39167	-77
1.40000	-78
1.40833	-79
1.41667	-80
1.42500	-80
1.43333	-81
1.44167	-83
1.45000	-83
1.45833	-83
1.46667	-82
1.47500	-82
1.48333	-83
1.49167	-84
1.50000	-85
1.50833	-85
1.51667	-85
1.52500	-85
1.53333	-85
1.54167	-85
1.55000	-86
1.55833	-87
1.56667	-87
1.57500	-87
1.58333	-88
1.59167	-89
1.60000	-90
1.60833	-91
1.61667	-90
1.62500	-89
1.63333	-88
1.64167	-88
1.65000	-88
1.65833	-87
1.66667	-87
1.67500	-87
1.68333	-87
1.69167	-86
1.70000	-85
1.70833	-83
1.71667	-81
1.72500	-78
1.73333	-76
1.74167	-74
1.75000	-73
1.75833	-71
1.76667	-66
1.77500	-61
1.78333	-57
1.79167	-52
1.80000	-47
1.80833	-43
1.81667	-39
1.82500	-36
1.83333	-31
1.84167	-27
1.85000	-24
1.85833	-20
1.86667	-18
1.87500	-17
1.88333	-18
1.89167	-18
1.90000	-17
1.90833	-18
1.91667	-19
1.92500	-21
1.93333	-25
1.94167	-30
1.95000	-33
1.95833	-38
1.96667	-43
1.97500	-48
1.98333	-52
1.99167	-57
2.00000	-61
2.00833	-65
2.01667	-68
2.02500	-72
2.03333	-76
2.04167	-80
2.05000	-83
2.05833	-86
2.06667	-88
2.07500	-91
2.08333	-93
2.09167	-95
2.10000	-96
2.10833	-96
2.11667	-97
2.12500	-99
2.13333	-101
2.14167	-102
2.15000	-103
2.15833	-104
2.16667	-104
2.17500	-105
2.18333	-105
2.19167	-104
2.20000	-105
2.20833	-106
2.21667	-108
2.22500	-108
2.23333	-109
2.24167	-110
2.25000	-110
2.25833	-111
2.26667	-111
2.27500	-111
2.28333	-111
2.29167	-111
2.30000	-111
2.30833	-111
2.31667	-111
2.32500	-112
2.33333	-114
2.34167	-115
2.35000	-116
2.35833	-116
2.36667	-117
2.37500	-116
2.38333	-116
2.39167	-117
2.40000	-117
2.40833	-116
2.41667	-116
2.42500	-116
2.43333	-116
2.44167	-116
2.45000	-116
2.45833	-117
2.46667	-118
2.47500	-118
2.48333	-117
2.49167	-116
2.50000	-117
2.50833	-116
2.51667	-116
2.52500	-116
2.53333	-118
2.54167	-120
2.55000	-121
2.55833	-122
2.56667	-121
2.57500	-121
2.58333	-122
2.59167	-122
2.60000	-122
2.60833	-121
2.61667	-121
2.62500	-122
2.63333	-123
2.64167	-123
2.65000	-123
2.65833	-124
2.66667	-125
2.67500	-126
2.68333	-125
2.69167	-126
2.70000	-126
2.70833	-127
2.71667	-126
2.72500	-126
2.73333	-127
2.74167	-127
2.75000	-127
2.75833	-127
2.76667	-127
2.77500	-127
2.78333	-127
2.79167	-128
2.80000	-130
2.80833	-130
2.81667	-129
2.82500	-129
2.83333	-128
2.84167	-129
2.85000	-129
2.85833	-130
2.86667	-129
2.87500	-129
2.88333	-128
2.89167	-128
2.90000	-127
2.90833	-126
2.91667	-125
2.92500	-124
2.93333	-123
2.94167	-120
2.95000	-118
2.95833	-116
2.96667	-112
2.97500	-109
2.98333	-104
2.99167	-98
3.00000	-92
3.00833	-85
3.01667	-76
3.02500	-67
3.03333	-55
3.04167	-42
3.05000	-27
3.05833	-7
3.06667	19
3.07500	52
3.08333	93
3.09167	140
3.10000	193
3.10833	248
3.11667	304
3.12500	358
3.13333	409
3.14167	454
3.15000	494
3.15833	527
3.16667	553
3.17500	572
3.18333	583
3.19167	589
3.20000	588
3.20833	581
3.21667	570
3.22500	554
3.23333	537
3.24167	517
3.25000	496
3.25833	476
3.26667	457
3.27500	440
3.28333	425
3.29167	415
3.30000	410
3.30833	407
3.31667	407
3.32500	412
3.33333	420
3.34167	431
3.35000	444
3.35833	462
3.36667	482
3.37500	504
3.38333	527
3.39167	548
3.40000	564
3.40833	573
3.41667	572
3.42500	564
3.43333	550
3.44167	532
3.45000	515
3.45833	502
3.46667	495
3.47500	495
3.48333	501
3.49167	512
3.50000	525
3.50833	539
3.51667	550
3.52500	556
3.53333	559
3.54167	557
3.55000	554
3.55833	552
3.56667	553
3.57500	561
3.58333	579
3.59167	605
3.60000	637
3.60833	670
3.61667	703
3.62500	731
3.63333	751
3.64167	763
3.65000	767
3.65833	764
3.66667	757
3.67500	746
3.68333	735
3.69167	731
3.70000	757
3.70833	912
3.71667	1517
3.72500	3472
3.73333	8859
3.74167	21612
3.75000	47773
3.75833	94698
3.76667	169058
3.77500	274442
3.78333	410071
3.79167	571576
3.80000	753442
3.80833	951669
3.81667	1165523
3.82500	1398474
3.83333	1658767
3.84167	1957712
3.85000	2298571
3.85833	2656933
3.86667	2986495
3.87500	3250966
3.88333	3439012
3.89167	3554721
3.90000	3602316
3.90833	3572392
3.91667	3431179
3.92500	3148016
3.93333	2737861
3.94167	2259310
3.95000	1780163
3.95833	1351152
3.96667	997877
3.97500	724866
3.98333	523745
3.99167	380677
4.00000	281275
4.00833	213111
4.01667	166513
4.02500	134455
4.03333	112065
4.04167	96070
4.05000	84314
4.05833	75398
4.06667	68423
4.07500	62817
4.08333	58232
4.09167	54482
4.10000	51505
4.10833	49333
4.11667	48061
4.12500	47795
4.13333	48581
4.14167	50339
4.15000	52825
4.15833	55649
4.16667	58333
4.17500	60415
4.18333	61539
4.19167	61522
4.20000	60362
4.20833	58205
4.21667	55292
4.22500	51896
4.23333	48272
4.24167	44632
4.25000	41132
4.25833	37871
4.26667	34903
4.27500	32246
4.28333	29897
4.29167	27837
4.30000	26038
4.30833	24469
4.31667	23099
4.32500	21900
4.33333	20844
4.34167	19908
4.35000	19075
4.35833	18328
4.36667	17652
4.37500	17036
4.38333	16472
4.39167	15954
4.40000	15472
4.40833	15021
4.41667	14600
4.42500	14204
4.43333	13831
4.44167	13476
4.45000	13140
4.45833	12822
4.46667	12519
4.47500	12229
4.48333	11951
4.49167	11685
4.50000	11430
4.50833	11187
4.51667	10954
4.52500	10728
4.53333	10510
4.54167	10299
4.55000	10096
4.55833	9899
4.56667	9710
4.57500	9528
4.58333	9355
4.59167	9190
4.60000	9033
4.60833	8888
4.61667	8758
4.62500	8647
4.63333	8560
4.64167	8502
4.65000	8480
4.65833	8495
4.66667	8551
4.67500	8640
4.68333	8757
4.69167	8888
4.70000	9018
4.70833	9130
4.71667	9210
4.72500	9249
4.73333	9239
4.74167	9179
4.75000	9072
4.75833	8922
4.76667	8734
4.77500	8516
4.78333	8275
4.79167	8017
4.80000	7750
4.80833	7476
4.81667	7203
4.82500	6939
4.83333	6691
4.84167	6462
4.85000	6256
4.85833	6070
4.86667	5906
4.87500	5759
4.88333	5629
4.89167	5512
4.90000	5406
4.90833	5308
4.91667	5218
4.92500	5135
4.93333	5058
4.94167	4983
4.95000	4912
4.95833	4843
4.96667	4776
4.97500	4713
4.98333	4653
4.99167	4595
5.00000	4540
5.00833	4485
5.01667	4431
5.02500	4379
5.03333	4327
5.04167	4275
5.05000	4226
5.05833	4179
5.06667	4134
5.07500	4091
5.08333	4050
5.09167	4010
5.10000	3973
5.10833	3937
5.11667	3902
5.12500	3867
5.13333	3831
5.14167	3794
5.15000	3756
5.15833	3716
5.16667	3676
5.17500	3637
5.18333	3597
5.19167	3556
5.20000	3515
5.20833	3475
5.21667	3437
5.22500	3400
5.23333	3364
5.24167	3330
5.25000	3298
5.25833	3269
5.26667	3241
5.27500	3215
5.28333	3189
5.29167	3164
5.30000	3137
5.30833	3111
5.31667	3084
5.32500	3060
5.33333	3038
5.34167	3021
5.35000	3010
5.35833	3011
5.36667	3031
5.37500	3076
5.38333	3155
5.39167	3275
5.40000	3443
5.40833	3662
5.41667	3930
5.42500	4238
5.43333	4576
5.44167	4926
5.45000	5264
5.45833	5569
5.46667	5818
5.47500	5998
5.48333	6097
5.49167	6114
5.50000	6052
5.50833	5917
5.51667	5721
5.52500	5478
5.53333	5204
5.54167	4911
5.55000	4613
5.55833	4317
5.56667	4034
5.57500	3768
5.58333	3523
5.59167	3303
5.60000	3108
5.60833	2937
5.61667	2789
5.62500	2662
5.63333	2554
5.64167	2462
5.65000	2384
5.65833	2318
5.66667	2261
5.67500	2212
5.68333	2170
5.69167	2135
5.70000	2104
5.70833	2077
5.71667	2053
5.72500	2031
5.73333	2009
5.74167	1988
5.75000	1967
5.75833	1944
5.76667	1921
5.77500	1897
5.78333	1873
5.79167	1849
5.80000	1825
5.80833	1801
5.81667	1778
5.82500	1756
5.83333	1734
5.84167	1714
5.85000	1694
5.85833	1675
5.86667	1658
5.87500	1643
5.88333	1628
5.89167	1615
5.90000	1603
5.90833	1592
5.91667	1582
5.92500	1572
5.93333	1563
5.94167	1556
5.95000	1551
5.95833	1548
5.96667	1545
5.97500	1542
5.98333	1538
5.99167	1533
6.00000	1528
6.00833	1522
6.01667	1516
6.02500	1510
6.03333	1502
6.04167	1493
6.05000	1483
6.05833	1473
6.06667	1462
6.07500	1449
6.08333	1437
6.09167	1427
6.10000	1418
6.10833	1408
6.11667	1396
6.12500	1384
6.13333	1372
6.14167	1362
6.15000	1352
6.15833	1342
6.16667	1331
6.17500	1320
6.18333	1308
6.19167	1298
6.20000	1288
6.20833	1278
6.21667	1268
6.22500	1259
6.23333	1250
6.24167	1242
6.25000	1233
6.25833	1224
6.26667	1214
6.27500	1206
6.28333	1197
6.29167	1188
6.30000	1180
6.30833	1172
6.31667	1164
6.32500	1156
6.33333	1148
6.34167	1140
6.35000	1132
6.35833	1124
6.36667	1117
6.37500	1109
6.38333	1101
6.39167	1093
6.40000	1084
6.40833	1077
6.41667	1070
6.42500	1063
6.43333	1056
6.44167	1050
6.45000	1043
6.45833	1036
6.46667	1030
6.47500	1023
6.48333	1017
6.49167	1010
6.50000	1004
6.50833	998
6.51667	991
6.52500	984
6.53333	977
6.54167	972
6.55000	967
6.55833	961
6.56667	955
6.57500	949
6.58333	943
6.59167	938
6.60000	932
6.60833	927
6.61667	921
6.62500	916
6.63333	910
6.64167	904
6.65000	899
6.65833	894
6.66667	889
6.67500	885
6.68333	881
6.69167	876
6.70000	872
6.70833	867
6.71667	863
6.72500	858
6.73333	855
6.74167	852
6.75000	848
6.75833	844
6.76667	841
6.77500	836
6.78333	831
6.79167	827
6.80000	822
6.80833	817
6.81667	812
6.82500	808
6.83333	803
6.84167	798
6.85000	793
6.85833	787
6.86667	781
6.87500	775
6.88333	770
6.89167	764
6.90000	758
6.90833	753
6.91667	749
6.92500	745
6.93333	742
6.94167	738
6.95000	735
6.95833	730
6.96667	726
6.97500	722
6.98333	718
6.99167	714
7.00000	710
7.00833	708
7.01667	704
7.02500	701
7.03333	698
7.04167	694
7.05000	689
7.05833	684
7.06667	679
7.07500	674
7.08333	669
7.09167	665
7.10000	661
7.10833	657
7.11667	653
7.12500	649
7.13333	644
7.14167	640
7.15000	636
7.15833	632
7.16667	627
7.17500	622
7.18333	618
7.19167	614
7.20000	609
7.20833	606
7.21667	603
7.22500	598
7.23333	594
7.24167	591
7.25000	588
7.25833	584
7.26667	580
7.27500	577
7.28333	574
7.29167	571
7.30000	567
7.30833	563
7.31667	560
7.32500	557
7.33333	554
7.34167	550
7.35000	548
7.35833	545
7.36667	541
7.37500	538
7.38333	534
7.39167	531
7.40000	527
7.40833	523
7.41667	520
7.42500	517
7.43333	515
7.44167	511
7.45000	507
7.45833	502
7.46667	498
7.47500	495
7.48333	493
7.49167	491
7.50000	488
7.50833	485
7.51667	482
7.52500	479
7.53333	477
7.54167	474
7.55000	472
7.55833	470
7.56667	468
7.57500	466
7.58333	463
7.59167	461
7.60000	458
7.60833	456
7.61667	453
7.62500	450
7.63333	448
7.64167	446
7.65000	444
7.65833	442
7.66667	439
7.67500	437
7.68333	434
7.69167	432
7.70000	430
7.70833	429
7.71667	426
7.72500	424
7.73333	422
7.74167	419
7.75000	416
7.75833	414
7.76667	412
7.77500	409
7.78333	406
7.79167	403
7.80000	401
7.80833	399
7.81667	397
7.82500	396
7.83333	394
7.84167	392
7.85000	390
7.85833	387
7.86667	384
7.87500	382
7.88333	380
7.89167	378
7.90000	376
7.90833	373
7.91667	372
7.92500	371
7.93333	369
7.94167	366
7.95000	364
7.95833	361
7.96667	357
7.97500	355
7.98333	354
7.99167	352
8.00000	350
8.00833	348
8.01667	345
8.02500	343
8.03333	342
8.04167	340
8.05000	338
8.05833	337
8.06667	335
8.07500	332
8.08333	330
8.09167	328
8.10000	326
8.10833	325
8.11667	323
8.12500	322
8.13333	320
8.14167	317
8.15000	316
8.15833	314
8.16667	312
8.17500	311
8.18333	310
8.19167	308
8.20000	306
8.20833	303
8.21667	300
8.22500	299
8.23333	297
8.24167	295
8.25000	295
8.25833	295
8.26667	294
8.27500	292
8.28333	290
8.29167	288
8.30000	287
8.30833	287
8.31667	286
8.32500	285
8.33333	283
8.34167	280
8.35000	279
8.35833	276
8.36667	275
8.37500	273
8.38333	272
8.39167	271
8.40000	270
8.40833	269
8.41667	267
8.42500	265
8.43333	263
8.44167	261
8.45000	260
8.45833	258
8.46667	258
8.47500	257
8.48333	256
8.49167	253
8.50000	250
8.50833	249
8.51667	248
8.52500	247
8.53333	245
8.54167	243
8.55000	243
8.55833	243
8.56667	242
8.57500	242
8.58333	241
8.59167	240
8.60000	238
8.60833	237
8.61667	236
8.62500	234
8.63333	233
8.64167	232
8.65000	231
8.65833	230
8.66667	229
8.67500	228
8.68333	227
8.69167	227
8.70000	226
8.70833	226
8.71667	225
8.72500	224
8.73333	223
8.74167	223
8.75000	222
8.75833	221
8.76667	220
8.77500	220
8.78333	219
8.79167	218
8.80000	217
8.80833	215
8.81667	215
8.82500	213
8.83333	212
8.84167	210
8.85000	209
8.85833	207
8.86667	205
8.87500	205
8.88333	204
8.89167	203
8.90000	202
8.90833	201
8.91667	200
8.92500	199
8.93333	200
8.94167	199
8.95000	197
8.95833	196
8.96667	196
8.97500	195
8.98333	193
8.99167	191
9.00000	191
9.00833	190
9.01667	189
9.02500	186
9.03333	185
9.04167	184
9.05000	183
9.05833	183
9.06667	182
9.07500	182
9.08333	181
9.09167	179
9.10000	177
9.10833	176
9.11667	174
9.12500	173
9.13333	171
9.14167	170
9.15000	169
9.15833	168
9.16667	168
9.17500	167
9.18333	165
9.19167	163
9.20000	160
9.20833	159
9.21667	158
9.22500	156
9.23333	155
9.24167	154
9.25000	153
9.25833	153
9.26667	153
9.27500	151
9.28333	150
9.29167	148
9.30000	147
9.30833	146
9.31667	144
9.32500	142
9.33333	141
9.34167	141
9.35000	140
9.35833	139
9.36667	138
9.37500	138
9.38333	138
9.39167	137
9.40000	137
9.40833	137
9.41667	137
9.42500	138
9.43333	139
9.44167	140
9.45000	141
9.45833	142
9.46667	142
9.47500	143
9.48333	143
9.49167	143
9.50000	141
9.50833	141
9.51667	140
9.52500	140
9.53333	139
9.54167	138
9.55000	136
9.55833	133
9.56667	131
9.57500	129
9.58333	126
9.59167	125
9.60000	124
9.60833	122
9.61667	120
9.62500	118
9.63333	115
9.64167	113
9.65000	111
9.65833	111
9.66667	110
9.67500	110
9.68333	109
9.69167	107
9.70000	105
9.70833	103
9.71667	102
9.72500	101
9.73333	99
9.74167	97
9.75000	97
9.75833	96
9.76667	95
9.77500	94
9.78333	93
9.79167	92
9.80000	92
9.80833	92
9.81667	92
9.82500	92
9.83333	91
9.84167	91
9.85000	90
9.85833	88
9.86667	87
9.87500	86
9.88333	85
9.89167	84
9.90000	83
9.90833	83
9.91667	82
9.92500	81
9.93333	80
9.94167	77
9.95000	76
9.95833	76
9.96667	74
9.97500	72
9.98333	70
9.99167	69
10.00000	69

[LC Status Trace(Pump A Pressure)]
Interval(msec)	1000
# of Points	601
Start Time(min)	0.000
End Time(min)	10.000
Intensity Units	psi
Intensity Multiplier	14.2233
R.Time (min)	Intensity
0.00000	145.9
0.01667	145.9
0.03333	145.9
0.05000	111.4
0.06667	122.3
0.08333	122.3
0.10000	129.8
0.11667	131.8
0.13333	131.8
0.15000	136.2
0.16667	138.4
0.18333	140.1
0.20000	140.7
0.21667	142.4
0.23333	142.8
0.25000	143.6
0.26667	143.9
0.28333	144.0
0.30000	144.8
0.31667	145.0
0.33333	145.0
0.35000	145.4
0.36667	145.4
0.38333	145.4
0.40000	145.7
0.41667	145.8
0.43333	145.8
0.45000	145.9
0.46667	145.9
0.48333	146.1
0.50000	146.1
0.51667	146.1
0.53333	145.9
0.55000	146.1
0.56667	146.1
0.58333	146.1
0.60000	146.1
0.61667	146.1
0.63333	146.1
0.65000	146.1
0.66667	145.9
0.68333	146.2
0.70000	146.2
0.71667	146.1
0.73333	146.2
0.75000	146.1
0.76667	146.1
0.78333	146.2
0.80000	146.2
0.81667	146.1
0.83333	146.3
0.85000	146.3
0.86667	146.2
0.88333	146.2
0.90000	146.2
0.91667	146.3
0.93333	146.2
0.95000	146.1
0.96667	146.2
0.98333	146.2
1.00000	146.2
1.01667	146.2
1.03333	146.2
1.05000	146.1
1.06667	146.1
1.08333	146.1
1.10000	146.2
1.11667	146.2
1.13333	146.2
1.15000	146.1
1.16667	146.2
1.18333	146.3
1.20000	146.2
1.21667	146.2
1.23333	146.2
1.25000	146.2
1.26667	146.2
1.28333	146.3
1.30000	146.1
1.31667	146.1
1.33333	146.2
1.35000	146.2
1.36667	146.2
1.38333	146.2
1.40000	146.2
1.41667	146.2
1.43333	146.1
1.45000	146.2
1.46667	146.2
1.48333	146.2
1.50000	146.1
1.51667	146.2
1.53333	146.1
1.55000	146.2
1.56667	146.2
1.58333	146.2
1.60000	146.3
1.61667	146.2
1.63333	146.3
1.65000	146.2
1.66667	146.2
1.68333	146.2
1.70000	146.2
1.71667	146.5
1.73333	146.3
1.75000	146.3
1.76667	146.2
1.78333	146.3
1.80000	146.2
1.81667	146.2
1.83333	146.3
1.85000	146.1
1.86667	146.1
1.88333	146.3
1.90000	146.2
1.91667	146.2
1.93333	146.3
1.95000	146.2
1.96667	146.2
1.98333	146.2
2.00000	146.1
2.01667	146.1
2.03333	146.2
2.05000	146.2
2.06667	146.2
2.08333	146.2
2.10000	146.2
2.11667	146.2
2.13333	146.2
2.15000	146.2
2.16667	146.2
2.18333	146.3
2.20000	146.3
2.21667	146.2
2.23333	146.3
2.25000	146.3
2.26667	146.3
2.28333	146.3
2.30000	146.3
2.31667	146.2
2.33333	146.2
2.35000	146.2
2.36667	146.2
2.38333	146.2
2.40000	146.2
2.41667	146.3
2.43333	146.2
2.45000	146.2
2.46667	146.2
2.48333	146.2
2.50000	146.2
2.51667	146.2
2.53333	146.2
2.55000	146.2
2.56667	146.2
2.58333	146.2
2.60000	146.2
2.61667	146.3
2.63333	146.3
2.65000	146.2
2.66667	146.2
2.68333	146.2
2.70000	146.2
2.71667	146.3
2.73333	146.2
2.75000	146.2
2.76667	146.1
2.78333	146.2
2.80000	146.2
2.81667	146.2
2.83333	146.3
2.85000	146.2
2.86667	146.1
2.88333	146.2
2.90000	146.2
2.91667	146.2
2.93333	146.2
2.95000	146.2
2.96667	146.2
2.98333	146.2
3.00000	146.1
3.01667	146.2
3.03333	146.1
3.05000	146.1
3.06667	146.2
3.08333	146.1
3.10000	146.2
3.11667	146.2
3.13333	146.3
3.15000	146.2
3.16667	146.2
3.18333	146.2
3.20000	146.2
3.21667	146.2
3.23333	146.2
3.25000	146.2
3.26667	146.3
3.28333	146.3
3.30000	146.2
3.31667	146.2
3.33333	146.3
3.35000	146.2
3.36667	146.3
3.38333	146.2
3.40000	146.3
3.41667	146.3
3.43333	146.2
3.45000	146.3
3.46667	146.2
3.48333	146.2
3.50000	146.2
3.51667	146.2
3.53333	146.2
3.55000	146.2
3.56667	146.2
3.58333	146.1
3.60000	146.2
3.61667	146.1
3.63333	146.1
3.65000	146.1
3.66667	146.2
3.68333	146.1
3.70000	146.2
3.71667	146.2
3.73333	146.2
3.75000	146.2
3.76667	146.2
3.78333	146.2
3.80000	146.2
3.81667	146.2
3.83333	146.1
3.85000	146.2
3.86667	146.2
3.88333	146.2
3.90000	146.3
3.91667	146.3
3.93333	146.2
3.95000	146.2
3.96667	146.3
3.98333	146.2
4.00000	146.3
4.01667	146.3
4.03333	146.3
4.05000	146.3
4.06667	146.2
4.08333	146.2
4.10000	146.2
4.11667	146.2
4.13333	146.2
4.15000	146.3
4.16667	146.2
4.18333	146.3
4.20000	146.3
4.21667	146.3
4.23333	146.2
4.25000	146.3
4.26667	146.3
4.28333	146.3
4.30000	146.6
4.31667	146.2
4.33333	146.3
4.35000	146.3
4.36667	146.3
4.38333	146.5
4.40000	146.3
4.41667	146.3
4.43333	146.3
4.45000	146.5
4.46667	146.3
4.48333	146.3
4.50000	146.3
4.51667	146.3
4.53333	146.3
4.55000	146.2
4.56667	146.2
4.58333	146.3
4.60000	146.3
4.61667	146.3
4.63333	146.3
4.65000	146.3
4.66667	146.3
4.68333	146.3
4.70000	146.3
4.71667	146.5
4.73333	146.5
4.75000	146.3
4.76667	146.5
4.78333	146.5
4.80000	146.3
4.81667	146.3
4.83333	146.2
4.85000	146.5
4.86667	146.3
4.88333	146.5
4.90000	146.5
4.91667	146.5
4.93333	146.2
4.95000	146.5
4.96667	146.3
4.98333	146.3
5.00000	146.5
5.01667	146.3
5.03333	146.3
5.05000	146.3
5.06667	146.3
5.08333	146.3
5.10000	146.3
5.11667	146.3
5.13333	146.3
5.15000	146.2
5.16667	146.3
5.18333	146.3
5.20000	146.3
5.21667	146.5
5.23333	146.3
5.25000	146.3
5.26667	146.3
5.28333	146.3
5.30000	146.1
5.31667	146.3
5.33333	146.3
5.35000	146.3
5.36667	146.3
5.38333	146.3
5.40000	146.3
5.41667	146.3
5.43333	146.3
5.45000	146.3
5.46667	146.5
5.48333	146.3
5.50000	146.3
5.51667	146.5
5.53333	146.2
5.55000	146.5
5.56667	146.5
5.58333	146.3
5.60000	146.3
5.61667	146.3
5.63333	146.3
5.65000	146.3
5.66667	146.3
5.68333	146.3
5.70000	146.3
5.71667	146.3
5.73333	146.5
5.75000	146.3
5.76667	146.3
5.78333	146.3
5.80000	146.5
5.81667	146.5
5.83333	146.3
5.85000	146.3
5.86667	146.3
5.88333	146.5
5.90000	146.3
5.91667	146.5
5.93333	146.3
5.95000	146.5
5.96667	146.3
5.98333	146.5
6.00000	146.6
6.01667	146.3
6.03333	146.5
6.05000	146.3
6.06667	146.5
6.08333	146.3
6.10000	146.5
6.11667	146.3
6.13333	146.5
6.15000	146.6
6.16667	146.5
6.18333	146.3
6.20000	146.3
6.21667	146.3
6.23333	146.3
6.25000	146.3
6.26667	146.3
6.28333	146.3
6.30000	146.5
6.31667	146.5
6.33333	146.3
6.35000	146.3
6.36667	146.5
6.38333	146.6
6.40000	146.3
6.41667	146.5
6.43333	146.3
6.45000	146.5
6.46667	146.6
6.48333	146.5
6.50000	146.5
6.51667	146.5
6.53333	146.5
6.55000	146.5
6.56667	146.5
6.58333	146.5
6.60000	146.5
6.61667	146.6
6.63333	146.6
6.65000	146.5
6.66667	146.3
6.68333	146.6
6.70000	146.6
6.71667	146.6
6.73333	146.5
6.75000	146.3
6.76667	146.5
6.78333	146.5
6.80000	146.5
6.81667	146.3
6.83333	146.3
6.85000	146.3
6.86667	146.3
6.88333	146.5
6.90000	146.5
6.91667	146.5
6.93333	146.3
6.95000	146.6
6.96667	146.5
6.98333	146.3
7.00000	146.5
7.01667	146.3
7.03333	146.6
7.05000	146.6
7.06667	146.5
7.08333	146.6
7.10000	146.5
7.11667	146.5
7.13333	146.5
7.15000	146.5
7.16667	146.6
7.18333	146.5
7.20000	146.5
7.21667	146.5
7.23333	146.5
7.25000	146.5
7.26667	146.6
7.28333	146.6
7.30000	146.6
7.31667	146.6
7.33333	146.6
7.35000	146.6
7.36667	146.5
7.38333	146.6
7.40000	146.5
7.41667	146.6
7.43333	146.5
7.45000	146.5
7.46667	146.5
7.48333	146.6
7.50000	146.5
7.51667	146.5
7.53333	146.3
7.55000	146.6
7.56667	146.5
7.58333	146.6
7.60000	146.6
7.61667	146.6
7.63333	146.6
7.65000	146.5
7.66667	146.5
7.68333	146.5
7.70000	146.6
7.71667	146.5
7.73333	146.5
7.75000	146.6
7.76667	146.3
7.78333	146.5
7.80000	146.3
7.81667	146.5
7.83333	146.5
7.85000	146.5
7.86667	146.5
7.88333	146.5
7.90000	146.5
7.91667	146.5
7.93333	146.6
7.95000	146.6
7.96667	146.5
7.98333	146.3
8.00000	146.3
8.01667	146.3
8.03333	146.5
8.05000	146.5
8.06667	146.3
8.08333	146.5
8.10000	146.5
8.11667	146.3
8.13333	146.7
8.15000	146.5
8.16667	146.5
8.18333	146.5
8.20000	146.5
8.21667	146.5
8.23333	146.6
8.25000	146.5
8.26667	146.5
8.28333	146.6
8.30000	146.6
8.31667	146.3
8.33333	146.5
8.35000	146.5
8.36667	146.3
8.38333	146.6
8.40000	146.5
8.41667	146.5
8.43333	146.5
8.45000	146.5
8.46667	146.3
8.48333	146.6
8.50000	146.5
8.51667	146.3
8.53333	146.3
8.55000	146.3
8.56667	146.5
8.58333	146.6
8.60000	146.5
8.61667	146.5
8.63333	146.3
8.65000	146.3
8.66667	146.5
8.68333	146.3
8.70000	146.5
8.71667	146.5
8.73333	146.6
8.75000	146.5
8.76667	146.5
8.78333	146.5
8.80000	146.5
8.81667	146.5
8.83333	146.6
8.85000	146.6
8.86667	146.5
8.88333	146.6
8.90000	146.5
8.91667	146.6
8.93333	146.5
8.95000	146.5
8.96667	146.5
8.98333	146.6
9.00000	146.5
9.01667	146.5
9.03333	146.5
9.05000	146.5
9.06667	146.5
9.08333	146.5
9.10000	146.6
9.11667	146.5
9.13333	146.6
9.15000	146.6
9.16667	146.6
9.18333	146.5
9.20000	146.6
9.21667	146.5
9.23333	146.6
9.25000	146.6
9.26667	146.6
9.28333	146.6
9.30000	146.6
9.31667	146.7
9.33333	146.7
9.35000	146.7
9.36667	146.7
9.38333	146.6
9.40000	146.6
9.41667	146.5
9.43333	146.6
9.45000	146.5
9.46667	146.6
9.48333	146.6
9.50000	146.6
9.51667	146.6
9.53333	146.7
9.55000	146.6
9.56667	146.6
9.58333	146.7
9.60000	146.6
9.61667	146.7
9.63333	146.6
9.65000	146.7
9.66667	146.6
9.68333	146.6
9.70000	146.7
9.71667	146.7
9.73333	146.6
9.75000	146.7
9.76667	146.7
9.78333	146.6
9.80000	146.5
9.81667	146.7
9.83333	146.7
9.85000	146.6
9.86667	146.6
9.88333	146.6
9.90000	146.7
9.91667	146.6
9.93333	146.6
9.95000	146.5
9.96667	146.5
9.98333	146.6
10.00000	146.6

[LC Status Trace(Pump A Degasser Pressure)]
Interval(msec)	1000
# of Points	601
Start Time(min)	0.000
End Time(min)	10.000
Intensity Units	psi
Intensity Multiplier	14.2233
R.Time (min)	Intensity
0.00000	964.6
0.01667	964.6
0.03333	964.6
0.05000	964.6
0.06667	964.6
0.08333	964.6
0.10000	964.6
0.11667	964.6
0.13333	964.6
0.15000	964.6
0.16667	964.6
0.18333	964.6
0.20000	964.6
0.21667	964.6
0.23333	964.6
0.25000	964.6
0.26667	964.6
0.28333	964.6
0.30000	964.6
0.31667	964.6
0.33333	964.6
0.35000	964.6
0.36667	964.6
0.38333	964.6
0.40000	964.6
0.41667	964.6
0.43333	964.6
0.45000	964.6
0.46667	964.6
0.48333	964.6
0.50000	964.6
0.51667	964.6
0.53333	964.6
0.55000	964.6
0.56667	964.6
0.58333	964.6
0.60000	964.6
0.61667	964.6
0.63333	964.6
0.65000	964.6
0.66667	964.6
0.68333	964.6
0.70000	964.6
0.71667	964.6
0.73333	964.6
0.75000	964.6
0.76667	964.6
0.78333	964.6
0.80000	964.6
0.81667	964.6
0.83333	964.6
0.85000	964.6
0.86667	964.6
0.88333	964.6
0.90000	964.6
0.91667	964.6
0.93333	964.6
0.95000	964.6
0.96667	964.6
0.98333	964.6
1.00000	964.6
1.01667	964.6
1.03333	964.6
1.05000	964.6
1.06667	964.6
1.08333	964.6
1.10000	964.6
1.11667	964.6
1.13333	964.6
1.15000	964.6
1.16667	964.6
1.18333	964.6
1.20000	964.6
1.21667	964.6
1.23333	964.6
1.25000	964.6
1.26667	964.6
1.28333	964.6
1.30000	964.6
1.31667	964.6
1.33333	964.6
1.35000	964.6
1.36667	964.6
1.38333	964.6
1.40000	964.6
1.41667	964.6
1.43333	964.6
1.45000	964.6
1.46667	964.6
1.48333	964.6
1.50000	964.6
1.51667	964.6
1.53333	964.6
1.55000	964.6
1.56667	964.6
1.58333	964.6
1.60000	964.6
1.61667	964.6
1.63333	964.6
1.65000	964.6
1.66667	964.6
1.68333	964.6
1.70000	964.6
1.71667	964.6
1.73333	964.6
1.75000	964.6
1.76667	964.6
1.78333	964.6
1.80000	964.6
1.81667	964.6
1.83333	964.6
1.85000	964.6
1.86667	964.6
1.88333	964.6
1.90000	964.6
1.91667	964.6
1.93333	964.6
1.95000	964.6
1.96667	964.6
1.98333	964.6
2.00000	964.6
2.01667	964.6
2.03333	964.6
2.05000	964.6
2.06667	964.6
2.08333	964.6
2.10000	964.6
2.11667	964.6
2.13333	964.6
2.15000	964.6
2.16667	964.6
2.18333	964.6
2.20000	964.6
2.21667	964.6
2.23333	964.6
2.25000	964.6
2.26667	964.6
2.28333	964.6
2.30000	964.6
2.31667	964.6
2.33333	964.6
2.35000	964.6
2.36667	964.6
2.38333	964.6
2.40000	964.6
2.41667	964.6
2.43333	964.6
2.45000	964.6
2.46667	964.6
2.48333	964.6
2.50000	964.6
2.51667	964.6
2.53333	964.6
2.55000	964.6
2.56667	964.6
2.58333	964.6
2.60000	964.6
2.61667	964.6
2.63333	964.6
2.65000	964.6
2.66667	964.6
2.68333	964.6
2.70000	964.6
2.71667	964.6
2.73333	964.6
2.75000	964.6
2.76667	964.6
2.78333	964.6
2.80000	964.6
2.81667	964.6
2.83333	964.6
2.85000	964.6
2.86667	964.6
2.88333	964.6
2.90000	964.6
2.91667	964.6
2.93333	964.6
2.95000	964.6
2.96667	964.6
2.98333	964.6
3.00000	964.6
3.01667	964.6
3.03333	964.6
3.05000	964.6
3.06667	964.6
3.08333	964.6
3.10000	964.6
3.11667	964.6
3.13333	964.6
3.15000	964.6
3.16667	964.6
3.18333	964.6
3.20000	964.6
3.21667	964.6
3.23333	964.6
3.25000	964.6
3.26667	964.6
3.28333	964.6
3.30000	964.6
3.31667	964.6
3.33333	964.6
3.35000	964.6
3.36667	964.6
3.38333	964.6
3.40000	964.6
3.41667	964.6
3.43333	964.6
3.45000	964.6
3.46667	964.6
3.48333	964.6
3.50000	964.6
3.51667	964.6
3.53333	964.6
3.55000	964.6
3.56667	964.6
3.58333	964.6
3.60000	964.6
3.61667	964.6
3.63333	964.6
3.65000	964.6
3.66667	964.6
3.68333	964.6
3.70000	964.6
3.71667	964.6
3.73333	964.6
3.75000	964.6
3.76667	964.6
3.78333	964.6
3.80000	964.6
3.81667	964.6
3.83333	964.6
3.85000	964.6
3.86667	964.6
3.88333	964.6
3.90000	964.6
3.91667	964.6
3.93333	964.6
3.95000	964.6
3.96667	964.6
3.98333	964.6
4.00000	964.6
4.01667	964.6
4.03333	964.6
4.05000	964.6
4.06667	964.6
4.08333	964.6
4.10000	964.6
4.11667	964.6
4.13333	964.6
4.15000	964.6
4.16667	964.6
4.18333	964.6
4.20000	964.6
4.21667	964.6
4.23333	964.6
4.25000	964.6
4.26667	964.6
4.28333	964.6
4.30000	964.6
4.31667	964.6
4.33333	964.6
4.35000	964.6
4.36667	964.6
4.38333	964.6
4.40000	964.6
4.41667	964.6
4.43333	964.6
4.45000	964.6
4.46667	964.6
4.48333	964.6
4.50000	964.6
4.51667	964.6
4.53333	964.6
4.55000	964.6
4.56667	964.6
4.58333	964.6
4.60000	964.6
4.61667	964.6
4.63333	964.6
4.65000	964.6
4.66667	964.6
4.68333	964.6
4.70000	964.6
4.71667	964.6
4.73333	964.6
4.75000	964.6
4.76667	964.6
4.78333	964.6
4.80000	964.6
4.81667	964.6
4.83333	964.6
4.85000	964.6
4.86667	964.6
4.88333	964.6
4.90000	964.6
4.91667	964.6
4.93333	964.6
4.95000	964.6
4.96667	964.6
4.98333	964.6
5.00000	964.6
5.01667	964.6
5.03333	964.6
5.05000	964.6
5.06667	964.6
5.08333	964.6
5.10000	964.6
5.11667	964.6
5.13333	964.6
5.15000	964.6
5.16667	964.6
5.18333	964.6
5.20000	964.6
5.21667	964.6
5.23333	964.6
5.25000	964.6
5.26667	964.6
5.28333	964.6
5.30000	964.6
5.31667	964.6
5.33333	964.6
5.35000	964.6
5.36667	964.6
5.38333	964.6
5.40000	964.6
5.41667	964.6
5.43333	964.6
5.45000	964.6
5.46667	964.6
5.48333	964.6
5.50000	964.6
5.51667	964.6
5.53333	964.6
5.55000	964.6
5.56667	964.6
5.58333	964.6
5.60000	964.6
5.61667	964.6
5.63333	964.6
5.65000	964.6
5.66667	964.6
5.68333	964.6
5.70000	964.6
5.71667	964.6
5.73333	964.6
5.75000	964.6
5.76667	964.6
5.78333	964.6
5.80000	965.6
5.81667	965.6
5.83333	965.6
5.85000	965.6
5.86667	965.6
5.88333	965.6
5.90000	965.6
5.91667	965.6
5.93333	965.6
5.95000	965.6
5.96667	965.6
5.98333	965.6
6.00000	965.6
6.01667	965.6
6.03333	965.6
6.05000	965.6
6.06667	965.6
6.08333	965.6
6.10000	965.6
6.11667	965.6
6.13333	965.6
6.15000	965.6
6.16667	965.6
6.18333	965.6
6.20000	965.6
6.21667	965.6
6.23333	965.6
6.25000	965.6
6.26667	965.6
6.28333	965.6
6.30000	965.6
6.31667	965.6
6.33333	965.6
6.35000	965.6
6.36667	965.6
6.38333	965.6
6.40000	965.6
6.41667	965.6
6.43333	964.6
6.45000	964.6
6.46667	964.6
6.48333	964.6
6.50000	964.6
6.51667	964.6
6.53333	964.6
6.55000	964.6
6.56667	964.6
6.58333	964.6
6.60000	964.6
6.61667	964.6
6.63333	964.6
6.65000	964.6
6.66667	964.6
6.68333	964.6
6.70000	964.6
6.71667	964.6
6.73333	964.6
6.75000	964.6
6.76667	964.6
6.78333	964.6
6.80000	964.6
6.81667	964.6
6.83333	964.6
6.85000	964.6
6.86667	964.6
6.88333	964.6
6.90000	964.6
6.91667	964.6
6.93333	964.6
6.95000	964.6
6.96667	964.6
6.98333	964.6
7.00000	964.6
7.01667	964.6
7.03333	964.6
7.05000	964.6
7.06667	964.6
7.08333	964.6
7.10000	964.6
7.11667	964.6
7.13333	964.6
7.15000	964.6
7.16667	964.6
7.18333	964.6
7.20000	964.6
7.21667	964.6
7.23333	964.6
7.25000	964.6
7.26667	964.6
7.28333	964.6
7.30000	964.6
7.31667	964.6
7.33333	964.6
7.35000	964.6
7.36667	964.6
7.38333	964.6
7.40000	964.6
7.41667	964.6
7.43333	964.6
7.45000	964.6
7.46667	964.6
7.48333	964.6
7.50000	964.6
7.51667	964.6
7.53333	964.6
7.55000	964.6
7.56667	964.6
7.58333	964.6
7.60000	964.6
7.61667	964.6
7.63333	964.6
7.65000	964.6
7.66667	964.6
7.68333	964.6
7.70000	964.6
7.71667	964.6
7.73333	964.6
7.75000	964.6
7.76667	964.6
7.78333	964.6
7.80000	964.6
7.81667	964.6
7.83333	964.6
7.85000	964.6
7.86667	964.6
7.88333	964.6
7.90000	964.6
7.91667	964.6
7.93333	964.6
7.95000	964.6
7.96667	964.6
7.98333	964.6
8.00000	964.6
8.01667	964.6
8.03333	964.6
8.05000	964.6
8.06667	964.6
8.08333	964.6
8.10000	964.6
8.11667	964.6
8.13333	964.6
8.15000	964.6
8.16667	964.6
8.18333	964.6
8.20000	964.6
8.21667	964.6
8.23333	964.6
8.25000	964.6
8.26667	964.6
8.28333	964.6
8.30000	964.6
8.31667	964.6
8.33333	964.6
8.35000	964.6
8.36667	964.6
8.38333	964.6
8.40000	964.6
8.41667	964.6
8.43333	964.6
8.45000	964.6
8.46667	964.6
8.48333	964.6
8.50000	964.6
8.51667	964.6
8.53333	964.6
8.55000	964.6
8.56667	964.6
8.58333	964.6
8.60000	964.6
8.61667	964.6
8.63333	964.6
8.65000	964.6
8.66667	964.6
8.68333	964.6
8.70000	964.6
8.71667	964.6
8.73333	964.6
8.75000	964.6
8.76667	964.6
8.78333	964.6
8.80000	964.6
8.81667	964.6
8.83333	964.6
8.85000	964.6
8.86667	964.6
8.88333	964.6
8.90000	964.6
8.91667	964.6
8.93333	964.6
8.95000	964.6
8.96667	964.6
8.98333	964.6
9.00000	964.6
9.01667	964.6
9.03333	964.6
9.05000	964.6
9.06667	964.6
9.08333	964.6
9.10000	964.6
9.11667	964.6
9.13333	964.6
9.15000	964.6
9.16667	964.6
9.18333	964.6
9.20000	964.6
9.21667	964.6
9.23333	964.6
9.25000	964.6
9.26667	964.6
9.28333	964.6
9.30000	964.6
9.31667	964.6
9.33333	964.6
9.35000	964.6
9.36667	964.6
9.38333	964.6
9.40000	964.6
9.41667	964.6
9.43333	964.6
9.45000	964.6
9.46667	964.6
9.48333	964.6
9.50000	964.6
9.51667	964.6
9.53333	964.6
9.55000	964.6
9.56667	964.6
9.58333	964.6
9.60000	964.6
9.61667	964.6
9.63333	964.6
9.65000	964.6
9.66667	964.6
9.68333	964.6
9.70000	964.6
9.71667	964.6
9.73333	964.6
9.75000	964.6
9.76667	964.6
9.78333	964.6
9.80000	964.6
9.81667	964.6
9.83333	964.6
9.85000	964.6
9.86667	964.6
9.88333	964.6
9.90000	964.6
9.91667	964.6
9.93333	964.6
9.95000	964.6
9.96667	964.6
9.98333	964.6
10.00000	964.6

[LC Status Trace(RF A Cell Temp.)]
Interval(msec)	1000
# of Points	601
Start Time(min)	0.000
End Time(min)	10.000
Intensity Units	C
Intensity Multiplier	1
R.Time (min)	Intensity
0.00000	40.03
0.01667	40.03
0.03333	40.03
0.05000	39.98
0.06667	39.93
0.08333	39.96
0.10000	39.98
0.11667	39.98
0.13333	40.02
0.15000	40.02
0.16667	40.03
0.18333	40.05
0.20000	40.03
0.21667	40.03
0.23333	40.07
0.25000	40.09
0.26667	40.00
0.28333	40.08
0.30000	40.03
0.31667	40.02
0.33333	40.02
0.35000	40.00
0.36667	40.03
0.38333	40.07
0.40000	40.03
0.41667	40.00
0.43333	40.02
0.45000	40.05
0.46667	40.02
0.48333	40.00
0.50000	39.99
0.51667	40.03
0.53333	40.03
0.55000	40.07
0.56667	40.05
0.58333	40.00
0.60000	40.00
0.61667	39.99
0.63333	40.00
0.65000	40.00
0.66667	40.00
0.68333	40.00
0.70000	40.00
0.71667	40.00
0.73333	40.02
0.75000	40.02
0.76667	40.00
0.78333	40.00
0.80000	40.00
0.81667	40.00
0.83333	40.00
0.85000	40.00
0.86667	40.00
0.88333	40.00
0.90000	40.00
0.91667	40.00
0.93333	40.00
0.95000	40.00
0.96667	40.00
0.98333	40.05
1.00000	40.00
1.01667	40.00
1.03333	39.99
1.05000	40.00
1.06667	39.99
1.08333	39.97
1.10000	39.96
1.11667	39.91
1.13333	39.95
1.15000	39.99
1.16667	39.96
1.18333	39.93
1.20000	40.00
1.21667	39.98
1.23333	39.96
1.25000	40.00
1.26667	40.00
1.28333	40.02
1.30000	39.99
1.31667	40.00
1.33333	40.00
1.35000	40.00
1.36667	40.00
1.38333	40.00
1.40000	40.00
1.41667	40.00
1.43333	39.99
1.45000	39.99
1.46667	40.00
1.48333	40.00
1.50000	40.00
1.51667	40.00
1.53333	40.00
1.55000	40.00
1.56667	39.99
1.58333	39.99
1.60000	40.00
1.61667	40.02
1.63333	39.99
1.65000	39.99
1.66667	39.99
1.68333	40.02
1.70000	40.00
1.71667	40.00
1.73333	40.00
1.75000	39.99
1.76667	40.02
1.78333	40.00
1.80000	40.00
1.81667	40.00
1.83333	40.00
1.85000	40.00
1.86667	40.00
1.88333	40.00
1.90000	40.00
1.91667	40.02
1.93333	40.02
1.95000	40.00
1.96667	40.00
1.98333	40.03
2.00000	40.00
2.01667	39.99
2.03333	40.00
2.05000	40.06
2.06667	40.05
2.08333	40.03
2.10000	40.00
2.11667	40.00
2.13333	40.02
2.15000	40.00
2.16667	40.00
2.18333	40.00
2.20000	40.00
2.21667	40.00
2.23333	39.99
2.25000	40.00
2.26667	40.00
2.28333	40.02
2.30000	40.00
2.31667	40.06
2.33333	40.06
2.35000	40.02
2.36667	40.00
2.38333	40.02
2.40000	40.00
2.41667	40.00
2.43333	39.99
2.45000	39.99
2.46667	39.99
2.48333	39.99
2.50000	39.96
2.51667	39.96
2.53333	39.95
2.55000	39.93
2.56667	39.93
2.58333	39.95
2.60000	39.93
2.61667	39.93
2.63333	39.97
2.65000	39.99
2.66667	40.00
2.68333	39.97
2.70000	39.95
2.71667	40.03
2.73333	40.05
2.75000	40.02
2.76667	40.05
2.78333	40.09
2.80000	40.05
2.81667	40.00
2.83333	40.00
2.85000	40.03
2.86667	40.05
2.88333	40.00
2.90000	40.00
2.91667	40.02
2.93333	40.03
2.95000	40.00
2.96667	40.02
2.98333	40.05
3.00000	39.99
3.01667	39.99
3.03333	40.00
3.05000	40.00
3.06667	39.99
3.08333	40.02
3.10000	40.07
3.11667	40.06
3.13333	40.02
3.15000	40.00
3.16667	40.02
3.18333	40.00
3.20000	40.00
3.21667	40.05
3.23333	39.99
3.25000	40.00
3.26667	40.02
3.28333	40.00
3.30000	40.00
3.31667	40.00
3.33333	39.99
3.35000	39.99
3.36667	39.96
3.38333	39.93
3.40000	39.93
3.41667	39.96
3.43333	40.00
3.45000	40.00
3.46667	40.00
3.48333	40.00
3.50000	39.99
3.51667	40.00
3.53333	40.00
3.55000	40.03
3.56667	40.05
3.58333	40.06
3.60000	39.99
3.61667	40.02
3.63333	40.00
3.65000	40.00
3.66667	40.00
3.68333	40.00
3.70000	40.00
3.71667	40.03
3.73333	40.02
3.75000	40.00
3.76667	40.03
3.78333	40.00
3.80000	40.00
3.81667	39.99
3.83333	39.96
3.85000	39.96
3.86667	39.93
3.88333	39.91
3.90000	39.95
3.91667	39.99
3.93333	40.00
3.95000	40.00
3.96667	40.02
3.98333	40.00
4.00000	40.02
4.01667	40.02
4.03333	40.06
4.05000	40.07
4.06667	40.03
4.08333	40.03
4.10000	40.00
4.11667	40.00
4.13333	40.03
4.15000	40.00
4.16667	40.00
4.18333	39.99
4.20000	40.00
4.21667	40.00
4.23333	39.93
4.25000	39.93
4.26667	39.96
4.28333	40.02
4.30000	40.05
4.31667	40.00
4.33333	40.00
4.35000	40.00
4.36667	40.00
4.38333	39.99
4.40000	40.00
4.41667	39.99
4.43333	40.00
4.45000	40.00
4.46667	40.03
4.48333	40.00
4.50000	40.00
4.51667	39.99
4.53333	40.00
4.55000	39.96
4.56667	39.93
4.58333	39.96
4.60000	40.00
4.61667	40.00
4.63333	40.02
4.65000	40.00
4.66667	40.00
4.68333	40.03
4.70000	40.00
4.71667	40.02
4.73333	40.02
4.75000	39.99
4.76667	40.00
4.78333	40.00
4.80000	40.00
4.81667	40.00
4.83333	40.00
4.85000	40.03
4.86667	40.00
4.88333	40.02
4.90000	40.02
4.91667	40.00
4.93333	40.02
4.95000	40.02
4.96667	40.00
4.98333	40.00
5.00000	40.00
5.01667	39.99
5.03333	40.00
5.05000	40.00
5.06667	40.00
5.08333	40.02
5.10000	40.05
5.11667	40.00
5.13333	40.00
5.15000	40.00
5.16667	40.06
5.18333	40.00
5.20000	40.00
5.21667	39.99
5.23333	40.00
5.25000	40.00
5.26667	39.99
5.28333	40.02
5.30000	40.05
5.31667	40.06
5.33333	40.03
5.35000	40.02
5.36667	40.00
5.38333	39.99
5.40000	40.00
5.41667	40.00
5.43333	39.98
5.45000	39.96
5.46667	40.00
5.48333	40.00
5.50000	39.98
5.51667	39.93
5.53333	39.93
5.55000	39.93
5.56667	39.93
5.58333	39.97
5.60000	39.99
5.61667	40.00
5.63333	40.00
5.65000	39.99
5.66667	39.99
5.68333	40.03
5.70000	40.03
5.71667	40.03
5.73333	40.00
5.75000	40.00
5.76667	40.00
5.78333	40.00
5.80000	39.99
5.81667	40.02
5.83333	40.02
5.85000	40.00
5.86667	40.00
5.88333	40.00
5.90000	40.00
5.91667	40.00
5.93333	40.05
5.95000	40.02
5.96667	39.99
5.98333	40.02
6.00000	40.03
6.01667	40.02
6.03333	40.02
6.05000	40.00
6.06667	40.02
6.08333	40.02
6.10000	40.03
6.11667	40.00
6.13333	40.02
6.15000	40.00
6.16667	40.00
6.18333	40.00
6.20000	40.00
6.21667	40.00
6.23333	40.00
6.25000	40.00
6.26667	40.00
6.28333	40.00
6.30000	40.00
6.31667	40.00
6.33333	40.00
6.35000	40.02
6.36667	40.07
6.38333	40.03
6.40000	40.00
6.41667	40.00
6.43333	40.00
6.45000	40.00
6.46667	40.02
6.48333	40.03
6.50000	40.05
6.51667	40.05
6.53333	40.00
6.55000	40.00
6.56667	40.02
6.58333	40.03
6.60000	40.00
6.61667	40.00
6.63333	40.00
6.65000	40.00
6.66667	40.02
6.68333	40.06
6.70000	40.02
6.71667	40.00
6.73333	40.00
6.75000	40.00
6.76667	40.00
6.78333	40.00
6.80000	40.00
6.81667	40.00
6.83333	40.03
6.85000	40.02
6.86667	40.00
6.88333	40.00
6.90000	40.00
6.91667	40.00
6.93333	40.00
6.95000	40.00
6.96667	40.02
6.98333	40.00
7.00000	39.99
7.01667	40.00
7.03333	40.00
7.05000	40.00
7.06667	40.00
7.08333	40.00
7.10000	39.99
7.11667	40.00
7.13333	40.00
7.15000	40.00
7.16667	39.99
7.18333	40.00
7.20000	39.99
7.21667	39.98
7.23333	39.96
7.25000	39.93
7.26667	39.93
7.28333	39.98
7.30000	40.00
7.31667	40.00
7.33333	40.02
7.35000	40.00
7.36667	40.00
7.38333	40.00
7.40000	40.00
7.41667	40.00
7.43333	40.02
7.45000	40.03
7.46667	40.02
7.48333	40.00
7.50000	40.02
7.51667	40.00
7.53333	39.98
7.55000	40.00
7.56667	40.03
7.58333	40.00
7.60000	40.00
7.61667	40.00
7.63333	40.00
7.65000	39.99
7.66667	39.97
7.68333	39.97
7.70000	39.98
7.71667	39.99
7.73333	40.00
7.75000	40.00
7.76667	40.02
7.78333	40.02
7.80000	40.00
7.81667	40.00
7.83333	40.00
7.85000	40.00
7.86667	39.99
7.88333	40.02
7.90000	40.05
7.91667	40.00
7.93333	40.00
7.95000	40.00
7.96667	40.00
7.98333	40.00
8.00000	40.02
8.01667	40.00
8.03333	39.99
8.05000	40.00
8.06667	39.98
8.08333	39.97
8.10000	39.97
8.11667	39.96
8.13333	39.96
8.15000	39.99
8.16667	40.02
8.18333	40.02
8.20000	40.02
8.21667	40.00
8.23333	40.00
8.25000	40.00
8.26667	40.00
8.28333	40.00
8.30000	40.00
8.31667	40.02
8.33333	40.00
8.35000	40.00
8.36667	40.00
8.38333	40.00
8.40000	40.00
8.41667	40.00
8.43333	40.00
8.45000	40.00
8.46667	40.00
8.48333	40.02
8.50000	40.06
8.51667	40.05
8.53333	40.00
8.55000	40.02
8.56667	40.05
8.58333	40.02
8.60000	40.00
8.61667	40.00
8.63333	39.96
8.65000	39.93
8.66667	39.95
8.68333	39.97
8.70000	39.93
8.71667	39.93
8.73333	39.97
8.75000	39.97
8.76667	39.99
8.78333	39.98
8.80000	39.96
8.81667	40.00
8.83333	40.06
8.85000	40.07
8.86667	40.03
8.88333	39.99
8.90000	39.98
8.91667	40.00
8.93333	40.02
8.95000	40.03
8.96667	40.02
8.98333	40.00
9.00000	40.03
9.01667	40.00
9.03333	40.02
9.05000	40.00
9.06667	40.00
9.08333	40.00
9.10000	40.00
9.11667	40.00
9.13333	40.00
9.15000	40.02
9.16667	40.00
9.18333	40.05
9.20000	40.02
9.21667	40.00
9.23333	39.99
9.25000	40.00
9.26667	39.99
9.28333	40.00
9.30000	40.00
9.31667	40.00
9.33333	39.99
9.35000	39.99
9.36667	40.00
9.38333	40.00
9.40000	39.99
9.41667	39.99
9.43333	40.00
9.45000	40.00
9.46667	39.99
9.48333	40.03
9.50000	40.05
9.51667	40.06
9.53333	40.03
9.55000	40.05
9.56667	40.00
9.58333	39.98
9.60000	40.00
9.61667	40.03
9.63333	40.00
9.65000	40.00
9.66667	40.00
9.68333	39.97
9.70000	39.97
9.71667	39.96
9.73333	39.96
9.75000	39.93
9.76667	39.98
9.78333	40.00
9.80000	40.00
9.81667	39.99
9.83333	39.99
9.85000	39.99
9.86667	39.98
9.88333	39.96
9.90000	39.95
9.91667	39.93
9.93333	39.99
9.95000	39.99
9.96667	39.98
9.98333	39.97
10.00000	39.97

[Fraction Collection Report]
# of Fractions	0
