[Header]
Application Name	LabSolutions
Version	5.81 SP1
Data File Name	C:\LabSolutions\Data\Shangwen\20170529__Assay2_003.lcd
Output Date	5/29/2017
Output Time	3:34:17 PM

[File Information]
Type	Data File
Generated	5/29/2017 10:59:49 AM
Generated by	System Administrator
Modified	5/29/2017 11:10:13 AM
Modified by	System Administrator

[Sample Information]
Operator Name	System Administrator
Acquired	5/29/2017 11:00:11 AM
Sample Type	0:Unknown
Level	0
Sample Name	Assay2
Sample ID	003
ISTD Amount1	1
ISTD Amount2	1
ISTD Amount3	1
ISTD Amount4	1
ISTD Amount5	1
ISTD Amount6	1
ISTD Amount7	1
ISTD Amount8	1
ISTD Amount9	1
ISTD Amount10	1
ISTD Amount11	1
ISTD Amount12	1
ISTD Amount13	1
ISTD Amount14	1
ISTD Amount15	1
ISTD Amount16	1
ISTD Amount17	1
ISTD Amount18	1
ISTD Amount19	1
ISTD Amount20	1
ISTD Amount21	1
ISTD Amount22	1
ISTD Amount23	1
ISTD Amount24	1
ISTD Amount25	1
ISTD Amount26	1
ISTD Amount27	1
ISTD Amount28	1
ISTD Amount29	1
ISTD Amount30	1
ISTD Amount31	1
ISTD Amount32	1
Sample Amount	1
Dilution Factor	1
Vial#	95
Injection Volume	10

[Original Files]
Data File	C:\LabSolutions\Data\Shangwen\20170524__Assay2_003.lcd
Method File	C:\LabSolutions\Data\Shangwen\20170524_ATPAMP.lcm
Batch File	C:\LabSolutions\Data\Shangwen\20170524_batch2.lcb
Report Format File	c:\LabSolutions\System\DEFAULT.lsr

[File Description]


[Configuration]
Instrument Name	NAIR-HPLC-Instrument1
Instrument #	1
Line #	1
# of Detectors	2
Detector ID	Detector A	AD2
Detector Name	Detector A	ELSD
# of Channels	1	1

[Peak Table(Detector A)]
# of Peaks	9
Peak#	R.Time	I.Time	F.Time	Area	Height	A/H	Conc.	Mark	ID#	Name	k'	Plate #	Plate Ht.	Tailing	Resolution	Sep.Factor	Area Ratio	Height Ratio	Conc. %	Norm Conc.
1	1.930	1.517	2.733	165034	11689	14.119	0.000	   			0.000	423	354.677	1.089	0.000	0.000	0	0	0.000	0.000
2	2.984	2.833	3.067	27603	3357	8.222	0.000	   			0.546	1210	123.987	0.000	2.935	0.000	0	0	0.000	0.000
3	3.138	3.067	3.317	46741	5999	7.792	0.000	 V 			0.626	3262	45.989	0.000	0.548	1.146	0	0	0.000	0.000
4	3.399	3.317	3.467	10898	1265	8.616	0.000	 V 			0.762	67	2238.680	0.000	0.277	1.216	0	0	0.000	0.000
5	3.525	3.467	3.692	14071	1273	11.052	0.000	 V 			0.827	299	501.515	0.000	0.101	1.085	0	0	0.000	0.000
6	3.872	3.692	4.083	11755830	1607688	7.312	0.000	 V 			1.007	5879	25.516	1.057	0.683	1.218	0	0	0.000	0.000
7	4.194	4.083	4.642	6878518	988643	6.958	0.000	 V 			1.173	8136	18.436	1.420	1.657	1.165	0	0	0.000	0.000
8	4.807	4.642	5.250	1871569	237737	7.872	0.000	 V 			1.491	8292	18.089	1.139	3.091	1.271	0	0	0.000	0.000
9	5.484	5.250	8.050	11193834	1243040	9.005	0.000	SV 			1.842	8112	18.491	1.312	2.976	1.235	0	0	0.000	0.000

[Peak Table(AD2)]
# of Peaks	0

[Compound Results(Detector A)]
# of IDs	0

[Compound Results(AD2)]
# of IDs	0

[Group Results(Detector A)]
# of Groups	0

[Group Results(AD2)]
# of Groups	0

[LC Chromatogram(Detector A-Ch1)]
Interval(msec)	500
# of Points	1201
Start Time(min)	0.000
End Time(min)	10.000
Intensity Units	mV
Intensity Multiplier	0.001
Wavelength(nm)	260nm
R.Time (min)	Intensity
0.00000	-16
0.00833	-16
0.01667	-1
0.02500	-1
0.03333	-2
0.04167	-2
0.05000	-3
0.05833	-3
0.06667	-4
0.07500	-4
0.08333	-5
0.09167	-4
0.10000	-4
0.10833	-5
0.11667	-6
0.12500	-8
0.13333	-9
0.14167	-11
0.15000	-12
0.15833	-13
0.16667	-12
0.17500	-12
0.18333	-12
0.19167	-13
0.20000	-14
0.20833	-15
0.21667	-16
0.22500	-17
0.23333	-17
0.24167	-18
0.25000	-20
0.25833	-21
0.26667	-21
0.27500	-21
0.28333	-23
0.29167	-23
0.30000	-24
0.30833	-24
0.31667	-25
0.32500	-25
0.33333	-26
0.34167	-27
0.35000	-29
0.35833	-30
0.36667	-33
0.37500	-35
0.38333	-36
0.39167	-36
0.40000	-36
0.40833	-37
0.41667	-36
0.42500	-36
0.43333	-37
0.44167	-37
0.45000	-37
0.45833	-37
0.46667	-37
0.47500	-38
0.48333	-37
0.49167	-38
0.50000	-39
0.50833	-41
0.51667	-43
0.52500	-45
0.53333	-45
0.54167	-45
0.55000	-44
0.55833	-44
0.56667	-44
0.57500	-44
0.58333	-45
0.59167	-45
0.60000	-45
0.60833	-46
0.61667	-47
0.62500	-47
0.63333	-48
0.64167	-49
0.65000	-50
0.65833	-51
0.66667	-51
0.67500	-52
0.68333	-51
0.69167	-51
0.70000	-51
0.70833	-52
0.71667	-51
0.72500	-51
0.73333	-51
0.74167	-51
0.75000	-52
0.75833	-53
0.76667	-54
0.77500	-53
0.78333	-51
0.79167	-50
0.80000	-50
0.80833	-50
0.81667	-51
0.82500	-52
0.83333	-53
0.84167	-54
0.85000	-54
0.85833	-54
0.86667	-55
0.87500	-56
0.88333	-57
0.89167	-58
0.90000	-59
0.90833	-59
0.91667	-59
0.92500	-60
0.93333	-62
0.94167	-63
0.95000	-64
0.95833	-66
0.96667	-67
0.97500	-68
0.98333	-69
0.99167	-70
1.00000	-70
1.00833	-71
1.01667	-72
1.02500	-73
1.03333	-75
1.04167	-77
1.05000	-78
1.05833	-79
1.06667	-80
1.07500	-79
1.08333	-79
1.09167	-79
1.10000	-79
1.10833	-80
1.11667	-80
1.12500	-80
1.13333	-81
1.14167	-82
1.15000	-81
1.15833	-81
1.16667	-82
1.17500	-83
1.18333	-84
1.19167	-84
1.20000	-85
1.20833	-84
1.21667	-84
1.22500	-83
1.23333	-83
1.24167	-83
1.25000	-82
1.25833	-82
1.26667	-81
1.27500	-80
1.28333	-80
1.29167	-80
1.30000	-80
1.30833	-79
1.31667	-79
1.32500	-80
1.33333	-81
1.34167	-82
1.35000	-82
1.35833	-81
1.36667	-81
1.37500	-80
1.38333	-80
1.39167	-80
1.40000	-81
1.40833	-82
1.41667	-83
1.42500	-84
1.43333	-85
1.44167	-85
1.45000	-85
1.45833	-86
1.46667	-87
1.47500	-88
1.48333	-87
1.49167	-86
1.50000	-86
1.50833	-87
1.51667	-87
1.52500	-87
1.53333	-86
1.54167	-86
1.55000	-85
1.55833	-83
1.56667	-80
1.57500	-77
1.58333	-74
1.59167	-70
1.60000	-64
1.60833	-56
1.61667	-48
1.62500	-37
1.63333	-23
1.64167	-5
1.65000	17
1.65833	43
1.66667	76
1.67500	116
1.68333	168
1.69167	232
1.70000	312
1.70833	409
1.71667	528
1.72500	673
1.73333	847
1.74167	1054
1.75000	1300
1.75833	1589
1.76667	1926
1.77500	2311
1.78333	2746
1.79167	3232
1.80000	3767
1.80833	4349
1.81667	4971
1.82500	5626
1.83333	6305
1.84167	6994
1.85000	7682
1.85833	8353
1.86667	8994
1.87500	9589
1.88333	10126
1.89167	10592
1.90000	10978
1.90833	11273
1.91667	11475
1.92500	11579
1.93333	11585
1.94167	11495
1.95000	11314
1.95833	11049
1.96667	10706
1.97500	10295
1.98333	9827
1.99167	9315
2.00000	8766
2.00833	8194
2.01667	7605
2.02500	7012
2.03333	6425
2.04167	5848
2.05000	5288
2.05833	4752
2.06667	4243
2.07500	3767
2.08333	3324
2.09167	2915
2.10000	2543
2.10833	2205
2.11667	1902
2.12500	1631
2.13333	1391
2.14167	1180
2.15000	997
2.15833	837
2.16667	697
2.17500	577
2.18333	475
2.19167	388
2.20000	316
2.20833	255
2.21667	203
2.22500	159
2.23333	122
2.24167	92
2.25000	65
2.25833	42
2.26667	24
2.27500	10
2.28333	-1
2.29167	-12
2.30000	-22
2.30833	-31
2.31667	-38
2.32500	-44
2.33333	-49
2.34167	-54
2.35000	-58
2.35833	-62
2.36667	-66
2.37500	-69
2.38333	-71
2.39167	-73
2.40000	-77
2.40833	-80
2.41667	-82
2.42500	-84
2.43333	-87
2.44167	-90
2.45000	-93
2.45833	-95
2.46667	-97
2.47500	-99
2.48333	-101
2.49167	-103
2.50000	-106
2.50833	-107
2.51667	-108
2.52500	-110
2.53333	-111
2.54167	-113
2.55000	-113
2.55833	-114
2.56667	-116
2.57500	-117
2.58333	-119
2.59167	-121
2.60000	-123
2.60833	-123
2.61667	-123
2.62500	-124
2.63333	-125
2.64167	-126
2.65000	-127
2.65833	-128
2.66667	-128
2.67500	-129
2.68333	-129
2.69167	-131
2.70000	-131
2.70833	-132
2.71667	-134
2.72500	-135
2.73333	-135
2.74167	-135
2.75000	-135
2.75833	-135
2.76667	-136
2.77500	-136
2.78333	-136
2.79167	-137
2.80000	-138
2.80833	-138
2.81667	-139
2.82500	-139
2.83333	-140
2.84167	-138
2.85000	-130
2.85833	-110
2.86667	-67
2.87500	14
2.88333	148
2.89167	347
2.90000	617
2.90833	946
2.91667	1318
2.92500	1706
2.93333	2082
2.94167	2423
2.95000	2712
2.95833	2936
2.96667	3095
2.97500	3189
2.98333	3222
2.99167	3200
3.00000	3135
3.00833	3038
3.01667	2915
3.02500	2777
3.03333	2634
3.04167	2497
3.05000	2373
3.05833	2277
3.06667	2233
3.07500	2290
3.08333	2522
3.09167	2977
3.10000	3630
3.10833	4372
3.11667	5059
3.12500	5571
3.13333	5843
3.14167	5868
3.15000	5680
3.15833	5334
3.16667	4887
3.17500	4390
3.18333	3888
3.19167	3411
3.20000	2977
3.20833	2595
3.21667	2269
3.22500	1996
3.23333	1773
3.24167	1595
3.25000	1453
3.25833	1341
3.26667	1254
3.27500	1187
3.28333	1138
3.29167	1102
3.30000	1079
3.30833	1068
3.31667	1064
3.32500	1065
3.33333	1070
3.34167	1078
3.35000	1089
3.35833	1100
3.36667	1111
3.37500	1121
3.38333	1131
3.39167	1139
3.40000	1142
3.40833	1137
3.41667	1123
3.42500	1101
3.43333	1076
3.44167	1049
3.45000	1027
3.45833	1013
3.46667	1010
3.47500	1018
3.48333	1037
3.49167	1066
3.50000	1097
3.50833	1126
3.51667	1146
3.52500	1154
3.53333	1146
3.54167	1122
3.55000	1087
3.55833	1046
3.56667	1004
3.57500	967
3.58333	935
3.59167	909
3.60000	890
3.60833	873
3.61667	856
3.62500	835
3.63333	809
3.64167	779
3.65000	747
3.65833	714
3.66667	683
3.67500	658
3.68333	639
3.69167	634
3.70000	670
3.70833	842
3.71667	1454
3.72500	3307
3.73333	8188
3.74167	19376
3.75000	41780
3.75833	81257
3.76667	143015
3.77500	229803
3.78333	340933
3.79167	472661
3.80000	619449
3.80833	775097
3.81667	933154
3.82500	1086986
3.83333	1230172
3.84167	1357351
3.85000	1464477
3.85833	1547275
3.86667	1598541
3.87500	1607580
3.88333	1564166
3.89167	1464904
3.90000	1317248
3.90833	1138076
3.91667	948048
3.92500	765507
3.93333	602897
3.94167	466219
3.95000	356379
3.95833	271099
3.96667	206587
3.97500	158679
3.98333	123511
3.99167	97823
4.00000	79029
4.00833	65175
4.01667	54831
4.02500	46979
4.03333	40904
4.04167	36114
4.05000	32283
4.05833	29212
4.06667	26848
4.07500	25357
4.08333	25345
4.09167	28257
4.10000	36962
4.10833	56242
4.11667	92655
4.12500	153145
4.13333	242394
4.14167	359834
4.15000	497921
4.15833	642880
4.16667	777814
4.17500	886857
4.18333	958722
4.19167	988544
4.20000	977761
4.20833	932628
4.21667	862096
4.22500	775772
4.23333	682399
4.24167	588990
4.25000	500541
4.25833	420149
4.26667	349349
4.27500	288520
4.28333	237276
4.29167	194777
4.30000	159960
4.30833	131702
4.31667	108920
4.32500	90634
4.33333	75988
4.34167	64257
4.35000	54844
4.35833	47264
4.36667	41129
4.37500	36130
4.38333	32027
4.39167	28631
4.40000	25794
4.40833	23405
4.41667	21375
4.42500	19635
4.43333	18128
4.44167	16814
4.45000	15661
4.45833	14643
4.46667	13739
4.47500	12929
4.48333	12201
4.49167	11544
4.50000	10949
4.50833	10405
4.51667	9909
4.52500	9454
4.53333	9035
4.54167	8648
4.55000	8290
4.55833	7959
4.56667	7652
4.57500	7367
4.58333	7101
4.59167	6854
4.60000	6626
4.60833	6420
4.61667	6239
4.62500	6090
4.63333	5985
4.64167	5950
4.65000	6026
4.65833	6288
4.66667	6859
4.67500	7934
4.68333	9802
4.69167	12869
4.70000	17658
4.70833	24785
4.71667	34889
4.72500	48509
4.73333	65942
4.74167	87080
4.75000	111300
4.75833	137426
4.76667	163815
4.77500	188547
4.78333	209690
4.79167	225588
4.80000	235087
4.80833	237657
4.81667	233423
4.82500	223081
4.83333	207774
4.84167	188906
4.85000	167951
4.85833	146286
4.86667	125067
4.87500	105164
4.88333	87145
4.89167	71308
4.90000	57737
4.90833	46356
4.91667	36986
4.92500	29396
4.93333	23336
4.94167	18554
4.95000	14820
4.95833	11931
4.96667	9712
4.97500	8016
4.98333	6725
4.99167	5742
5.00000	4992
5.00833	4416
5.01667	3971
5.02500	3623
5.03333	3348
5.04167	3126
5.05000	2943
5.05833	2790
5.06667	2659
5.07500	2545
5.08333	2445
5.09167	2355
5.10000	2276
5.10833	2205
5.11667	2141
5.12500	2082
5.13333	2029
5.14167	1981
5.15000	1938
5.15833	1897
5.16667	1859
5.17500	1821
5.18333	1786
5.19167	1752
5.20000	1719
5.20833	1687
5.21667	1657
5.22500	1631
5.23333	1606
5.24167	1587
5.25000	1576
5.25833	1577
5.26667	1596
5.27500	1640
5.28333	1724
5.29167	1869
5.30000	2117
5.30833	2534
5.31667	3244
5.32500	4472
5.33333	6620
5.34167	10386
5.35000	16927
5.35833	28049
5.36667	46369
5.37500	75323
5.38333	118881
5.39167	180857
5.40000	263859
5.40833	368155
5.41667	490890
5.42500	626018
5.43333	765068
5.44167	898543
5.45000	1017475
5.45833	1114703
5.46667	1185597
5.47500	1228214
5.48333	1242980
5.49167	1232120
5.50000	1199012
5.50833	1147616
5.51667	1082012
5.52500	1006125
5.53333	923544
5.54167	837428
5.55000	750501
5.55833	665042
5.56667	582907
5.57500	505545
5.58333	434011
5.59167	368995
5.60000	310856
5.60833	259657
5.61667	215215
5.62500	177159
5.63333	144979
5.64167	118082
5.65000	95839
5.65833	77616
5.66667	62813
5.67500	50874
5.68333	41307
5.69167	33678
5.70000	27619
5.70833	22819
5.71667	19021
5.72500	16015
5.73333	13631
5.74167	11734
5.75000	10218
5.75833	8998
5.76667	8009
5.77500	7200
5.78333	6531
5.79167	5973
5.80000	5503
5.80833	5104
5.81667	4762
5.82500	4466
5.83333	4208
5.84167	3981
5.85000	3780
5.85833	3604
5.86667	3449
5.87500	3315
5.88333	3199
5.89167	3104
5.90000	3027
5.90833	2965
5.91667	2914
5.92500	2871
5.93333	2834
5.94167	2798
5.95000	2761
5.95833	2717
5.96667	2667
5.97500	2608
5.98333	2540
5.99167	2463
6.00000	2380
6.00833	2292
6.01667	2202
6.02500	2111
6.03333	2022
6.04167	1936
6.05000	1855
6.05833	1779
6.06667	1709
6.07500	1643
6.08333	1582
6.09167	1526
6.10000	1475
6.10833	1428
6.11667	1385
6.12500	1345
6.13333	1308
6.14167	1273
6.15000	1241
6.15833	1211
6.16667	1183
6.17500	1155
6.18333	1128
6.19167	1104
6.20000	1081
6.20833	1058
6.21667	1037
6.22500	1016
6.23333	996
6.24167	977
6.25000	960
6.25833	942
6.26667	926
6.27500	909
6.28333	894
6.29167	878
6.30000	863
6.30833	848
6.31667	834
6.32500	820
6.33333	806
6.34167	794
6.35000	782
6.35833	770
6.36667	759
6.37500	748
6.38333	737
6.39167	726
6.40000	717
6.40833	707
6.41667	697
6.42500	688
6.43333	680
6.44167	675
6.45000	672
6.45833	669
6.46667	669
6.47500	671
6.48333	675
6.49167	683
6.50000	693
6.50833	702
6.51667	711
6.52500	721
6.53333	727
6.54167	732
6.55000	733
6.55833	730
6.56667	724
6.57500	714
6.58333	701
6.59167	685
6.60000	666
6.60833	645
6.61667	623
6.62500	603
6.63333	584
6.64167	565
6.65000	547
6.65833	530
6.66667	514
6.67500	500
6.68333	487
6.69167	477
6.70000	467
6.70833	458
6.71667	450
6.72500	443
6.73333	438
6.74167	432
6.75000	427
6.75833	423
6.76667	419
6.77500	413
6.78333	408
6.79167	403
6.80000	398
6.80833	395
6.81667	391
6.82500	387
6.83333	383
6.84167	381
6.85000	379
6.85833	376
6.86667	374
6.87500	372
6.88333	370
6.89167	369
6.90000	367
6.90833	365
6.91667	363
6.92500	361
6.93333	358
6.94167	357
6.95000	356
6.95833	354
6.96667	350
6.97500	346
6.98333	342
6.99167	338
7.00000	333
7.00833	327
7.01667	321
7.02500	315
7.03333	309
7.04167	303
7.05000	297
7.05833	291
7.06667	285
7.07500	280
7.08333	275
7.09167	271
7.10000	267
7.10833	262
7.11667	257
7.12500	253
7.13333	249
7.14167	245
7.15000	240
7.15833	235
7.16667	231
7.17500	227
7.18333	224
7.19167	219
7.20000	215
7.20833	212
7.21667	208
7.22500	204
7.23333	200
7.24167	196
7.25000	193
7.25833	189
7.26667	186
7.27500	184
7.28333	181
7.29167	178
7.30000	175
7.30833	172
7.31667	169
7.32500	167
7.33333	165
7.34167	162
7.35000	160
7.35833	158
7.36667	157
7.37500	154
7.38333	150
7.39167	146
7.40000	142
7.40833	138
7.41667	135
7.42500	132
7.43333	129
7.44167	127
7.45000	125
7.45833	122
7.46667	120
7.47500	118
7.48333	116
7.49167	114
7.50000	113
7.50833	110
7.51667	108
7.52500	105
7.53333	103
7.54167	102
7.55000	102
7.55833	101
7.56667	100
7.57500	98
7.58333	97
7.59167	96
7.60000	95
7.60833	93
7.61667	93
7.62500	92
7.63333	90
7.64167	89
7.65000	87
7.65833	86
7.66667	84
7.67500	82
7.68333	80
7.69167	79
7.70000	77
7.70833	75
7.71667	73
7.72500	71
7.73333	69
7.74167	68
7.75000	67
7.75833	65
7.76667	64
7.77500	63
7.78333	61
7.79167	59
7.80000	57
7.80833	55
7.81667	53
7.82500	52
7.83333	52
7.84167	50
7.85000	49
7.85833	48
7.86667	45
7.87500	44
7.88333	42
7.89167	41
7.90000	39
7.90833	38
7.91667	37
7.92500	36
7.93333	35
7.94167	34
7.95000	32
7.95833	30
7.96667	29
7.97500	29
7.98333	28
7.99167	27
8.00000	25
8.00833	23
8.01667	22
8.02500	21
8.03333	20
8.04167	19
8.05000	18
8.05833	19
8.06667	19
8.07500	18
8.08333	18
8.09167	17
8.10000	17
8.10833	17
8.11667	18
8.12500	19
8.13333	20
8.14167	21
8.15000	21
8.15833	22
8.16667	22
8.17500	22
8.18333	22
8.19167	21
8.20000	21
8.20833	21
8.21667	20
8.22500	18
8.23333	17
8.24167	17
8.25000	17
8.25833	16
8.26667	14
8.27500	11
8.28333	8
8.29167	6
8.30000	4
8.30833	2
8.31667	-0
8.32500	-3
8.33333	-5
8.34167	-8
8.35000	-10
8.35833	-11
8.36667	-13
8.37500	-14
8.38333	-16
8.39167	-17
8.40000	-19
8.40833	-20
8.41667	-21
8.42500	-22
8.43333	-23
8.44167	-25
8.45000	-26
8.45833	-27
8.46667	-29
8.47500	-30
8.48333	-30
8.49167	-31
8.50000	-31
8.50833	-33
8.51667	-34
8.52500	-35
8.53333	-36
8.54167	-37
8.55000	-38
8.55833	-39
8.56667	-40
8.57500	-40
8.58333	-41
8.59167	-40
8.60000	-41
8.60833	-42
8.61667	-42
8.62500	-43
8.63333	-43
8.64167	-45
8.65000	-45
8.65833	-46
8.66667	-46
8.67500	-47
8.68333	-49
8.69167	-49
8.70000	-49
8.70833	-50
8.71667	-52
8.72500	-52
8.73333	-53
8.74167	-54
8.75000	-55
8.75833	-56
8.76667	-57
8.77500	-57
8.78333	-57
8.79167	-57
8.80000	-56
8.80833	-55
8.81667	-56
8.82500	-57
8.83333	-59
8.84167	-60
8.85000	-61
8.85833	-61
8.86667	-61
8.87500	-61
8.88333	-61
8.89167	-61
8.90000	-61
8.90833	-61
8.91667	-61
8.92500	-62
8.93333	-63
8.94167	-64
8.95000	-66
8.95833	-67
8.96667	-67
8.97500	-68
8.98333	-69
8.99167	-70
9.00000	-70
9.00833	-71
9.01667	-72
9.02500	-72
9.03333	-73
9.04167	-73
9.05000	-74
9.05833	-75
9.06667	-76
9.07500	-77
9.08333	-78
9.09167	-79
9.10000	-80
9.10833	-81
9.11667	-82
9.12500	-82
9.13333	-82
9.14167	-83
9.15000	-84
9.15833	-85
9.16667	-86
9.17500	-87
9.18333	-88
9.19167	-88
9.20000	-88
9.20833	-89
9.21667	-89
9.22500	-90
9.23333	-91
9.24167	-92
9.25000	-92
9.25833	-92
9.26667	-92
9.27500	-91
9.28333	-92
9.29167	-92
9.30000	-92
9.30833	-93
9.31667	-93
9.32500	-94
9.33333	-93
9.34167	-93
9.35000	-94
9.35833	-95
9.36667	-95
9.37500	-94
9.38333	-94
9.39167	-93
9.40000	-94
9.40833	-93
9.41667	-92
9.42500	-91
9.43333	-90
9.44167	-90
9.45000	-88
9.45833	-85
9.46667	-83
9.47500	-81
9.48333	-80
9.49167	-78
9.50000	-77
9.50833	-76
9.51667	-77
9.52500	-77
9.53333	-77
9.54167	-78
9.55000	-78
9.55833	-79
9.56667	-79
9.57500	-79
9.58333	-79
9.59167	-78
9.60000	-78
9.60833	-77
9.61667	-76
9.62500	-76
9.63333	-76
9.64167	-76
9.65000	-77
9.65833	-78
9.66667	-79
9.67500	-79
9.68333	-78
9.69167	-79
9.70000	-80
9.70833	-81
9.71667	-82
9.72500	-83
9.73333	-83
9.74167	-81
9.75000	-80
9.75833	-80
9.76667	-82
9.77500	-82
9.78333	-82
9.79167	-82
9.80000	-83
9.80833	-83
9.81667	-84
9.82500	-85
9.83333	-86
9.84167	-87
9.85000	-87
9.85833	-86
9.86667	-88
9.87500	-89
9.88333	-91
9.89167	-92
9.90000	-94
9.90833	-95
9.91667	-97
9.92500	-99
9.93333	-101
9.94167	-103
9.95000	-105
9.95833	-107
9.96667	-108
9.97500	-109
9.98333	-109
9.99167	-110
10.00000	-110

[LC Status Trace(Pump A Pressure)]
Interval(msec)	1000
# of Points	601
Start Time(min)	0.000
End Time(min)	10.000
Intensity Units	psi
Intensity Multiplier	14.2233
R.Time (min)	Intensity
0.00000	100.6
0.01667	100.6
0.03333	112.7
0.05000	120.2
0.06667	123.3
0.08333	128.4
0.10000	132.4
0.11667	134.0
0.13333	136.6
0.15000	137.9
0.16667	139.8
0.18333	141.1
0.20000	142.3
0.21667	142.7
0.23333	143.3
0.25000	144.1
0.26667	144.4
0.28333	144.9
0.30000	145.2
0.31667	145.3
0.33333	145.5
0.35000	145.7
0.36667	145.9
0.38333	145.9
0.40000	146.2
0.41667	146.1
0.43333	146.2
0.45000	146.3
0.46667	146.3
0.48333	146.3
0.50000	146.3
0.51667	146.5
0.53333	146.3
0.55000	146.5
0.56667	146.5
0.58333	146.5
0.60000	146.3
0.61667	146.6
0.63333	146.6
0.65000	146.3
0.66667	146.5
0.68333	146.5
0.70000	146.5
0.71667	146.5
0.73333	146.3
0.75000	146.3
0.76667	146.3
0.78333	146.3
0.80000	146.5
0.81667	146.6
0.83333	146.5
0.85000	146.6
0.86667	146.5
0.88333	146.6
0.90000	146.5
0.91667	146.5
0.93333	146.6
0.95000	146.5
0.96667	146.5
0.98333	146.5
1.00000	146.5
1.01667	146.5
1.03333	146.5
1.05000	146.6
1.06667	146.5
1.08333	146.6
1.10000	146.5
1.11667	146.5
1.13333	146.5
1.15000	146.2
1.16667	146.5
1.18333	146.5
1.20000	146.3
1.21667	146.3
1.23333	146.3
1.25000	146.5
1.26667	146.3
1.28333	146.5
1.30000	146.3
1.31667	146.3
1.33333	146.5
1.35000	146.5
1.36667	146.5
1.38333	146.3
1.40000	146.5
1.41667	146.5
1.43333	146.5
1.45000	146.5
1.46667	146.5
1.48333	146.3
1.50000	146.5
1.51667	146.5
1.53333	146.3
1.55000	146.3
1.56667	146.5
1.58333	146.3
1.60000	146.5
1.61667	146.3
1.63333	146.3
1.65000	146.5
1.66667	146.6
1.68333	146.5
1.70000	146.5
1.71667	146.5
1.73333	146.5
1.75000	146.5
1.76667	146.3
1.78333	146.3
1.80000	146.5
1.81667	146.6
1.83333	146.5
1.85000	146.3
1.86667	146.3
1.88333	146.3
1.90000	146.5
1.91667	146.5
1.93333	146.3
1.95000	146.5
1.96667	146.3
1.98333	146.5
2.00000	146.5
2.01667	146.6
2.03333	146.6
2.05000	146.5
2.06667	146.3
2.08333	146.5
2.10000	146.5
2.11667	146.5
2.13333	146.3
2.15000	146.2
2.16667	146.3
2.18333	146.2
2.20000	146.2
2.21667	146.3
2.23333	146.3
2.25000	146.2
2.26667	146.3
2.28333	146.2
2.30000	146.3
2.31667	146.3
2.33333	146.3
2.35000	146.3
2.36667	146.2
2.38333	146.3
2.40000	146.3
2.41667	146.2
2.43333	146.3
2.45000	146.3
2.46667	146.3
2.48333	146.5
2.50000	146.3
2.51667	146.3
2.53333	146.2
2.55000	146.3
2.56667	146.5
2.58333	146.3
2.60000	146.3
2.61667	146.2
2.63333	146.2
2.65000	146.3
2.66667	146.5
2.68333	146.3
2.70000	146.2
2.71667	146.3
2.73333	146.3
2.75000	146.2
2.76667	146.3
2.78333	146.2
2.80000	146.2
2.81667	146.3
2.83333	146.3
2.85000	146.3
2.86667	146.3
2.88333	146.3
2.90000	146.3
2.91667	146.5
2.93333	146.3
2.95000	146.3
2.96667	146.2
2.98333	146.5
3.00000	146.3
3.01667	146.5
3.03333	146.3
3.05000	146.2
3.06667	146.3
3.08333	146.3
3.10000	146.3
3.11667	146.5
3.13333	146.3
3.15000	146.5
3.16667	146.3
3.18333	146.5
3.20000	146.3
3.21667	146.5
3.23333	146.5
3.25000	146.5
3.26667	146.6
3.28333	146.5
3.30000	146.5
3.31667	146.3
3.33333	146.3
3.35000	146.5
3.36667	146.6
3.38333	146.3
3.40000	146.5
3.41667	146.3
3.43333	146.5
3.45000	146.3
3.46667	146.5
3.48333	146.5
3.50000	146.5
3.51667	146.5
3.53333	146.5
3.55000	146.3
3.56667	146.5
3.58333	146.6
3.60000	146.5
3.61667	146.5
3.63333	146.3
3.65000	146.3
3.66667	146.6
3.68333	146.5
3.70000	146.5
3.71667	146.3
3.73333	146.5
3.75000	146.5
3.76667	146.5
3.78333	146.5
3.80000	146.3
3.81667	146.2
3.83333	146.3
3.85000	146.3
3.86667	146.2
3.88333	146.3
3.90000	146.3
3.91667	146.3
3.93333	146.3
3.95000	146.3
3.96667	146.5
3.98333	146.3
4.00000	146.3
4.01667	146.5
4.03333	146.3
4.05000	146.3
4.06667	146.5
4.08333	146.3
4.10000	146.3
4.11667	146.5
4.13333	146.5
4.15000	146.3
4.16667	146.3
4.18333	146.3
4.20000	146.3
4.21667	146.5
4.23333	146.5
4.25000	146.5
4.26667	146.5
4.28333	146.3
4.30000	146.2
4.31667	146.5
4.33333	146.3
4.35000	146.5
4.36667	146.5
4.38333	146.3
4.40000	146.5
4.41667	146.3
4.43333	146.3
4.45000	146.3
4.46667	146.3
4.48333	146.3
4.50000	146.5
4.51667	146.3
4.53333	146.2
4.55000	146.5
4.56667	146.5
4.58333	146.5
4.60000	146.5
4.61667	146.5
4.63333	146.5
4.65000	146.5
4.66667	146.6
4.68333	146.5
4.70000	146.3
4.71667	146.5
4.73333	146.3
4.75000	146.5
4.76667	146.5
4.78333	146.3
4.80000	146.5
4.81667	146.5
4.83333	146.3
4.85000	146.5
4.86667	146.6
4.88333	146.5
4.90000	146.3
4.91667	146.5
4.93333	146.5
4.95000	146.6
4.96667	146.5
4.98333	146.3
5.00000	146.6
5.01667	146.5
5.03333	146.6
5.05000	146.5
5.06667	146.5
5.08333	146.3
5.10000	146.5
5.11667	146.5
5.13333	146.5
5.15000	146.6
5.16667	146.2
5.18333	146.3
5.20000	146.5
5.21667	146.3
5.23333	146.3
5.25000	146.3
5.26667	146.3
5.28333	146.6
5.30000	146.5
5.31667	146.5
5.33333	146.5
5.35000	146.3
5.36667	146.6
5.38333	146.5
5.40000	146.3
5.41667	146.5
5.43333	146.3
5.45000	146.3
5.46667	146.5
5.48333	146.5
5.50000	146.5
5.51667	146.3
5.53333	146.3
5.55000	146.3
5.56667	146.5
5.58333	146.5
5.60000	146.5
5.61667	146.6
5.63333	146.5
5.65000	146.3
5.66667	146.5
5.68333	146.5
5.70000	146.3
5.71667	146.6
5.73333	146.5
5.75000	146.5
5.76667	146.6
5.78333	146.3
5.80000	146.3
5.81667	146.3
5.83333	146.3
5.85000	146.5
5.86667	146.5
5.88333	146.5
5.90000	146.6
5.91667	146.5
5.93333	146.3
5.95000	146.3
5.96667	146.5
5.98333	146.3
6.00000	146.5
6.01667	146.5
6.03333	146.5
6.05000	146.5
6.06667	146.5
6.08333	146.5
6.10000	146.3
6.11667	146.5
6.13333	146.5
6.15000	146.5
6.16667	146.5
6.18333	146.3
6.20000	146.5
6.21667	146.5
6.23333	146.6
6.25000	146.5
6.26667	146.5
6.28333	146.3
6.30000	146.5
6.31667	146.6
6.33333	146.5
6.35000	146.5
6.36667	146.5
6.38333	146.3
6.40000	146.3
6.41667	146.5
6.43333	146.3
6.45000	146.6
6.46667	146.5
6.48333	146.5
6.50000	146.3
6.51667	146.5
6.53333	146.3
6.55000	146.5
6.56667	146.3
6.58333	146.3
6.60000	146.5
6.61667	146.2
6.63333	146.5
6.65000	146.3
6.66667	146.5
6.68333	146.5
6.70000	146.5
6.71667	146.3
6.73333	146.3
6.75000	146.5
6.76667	146.5
6.78333	146.3
6.80000	146.5
6.81667	146.5
6.83333	146.5
6.85000	146.3
6.86667	146.5
6.88333	146.3
6.90000	146.3
6.91667	146.5
6.93333	146.6
6.95000	146.5
6.96667	146.6
6.98333	146.5
7.00000	146.5
7.01667	146.3
7.03333	146.3
7.05000	146.3
7.06667	146.5
7.08333	146.5
7.10000	146.6
7.11667	146.5
7.13333	146.6
7.15000	146.6
7.16667	146.6
7.18333	146.6
7.20000	146.6
7.21667	146.5
7.23333	146.6
7.25000	146.5
7.26667	146.6
7.28333	146.6
7.30000	146.6
7.31667	146.5
7.33333	146.6
7.35000	146.6
7.36667	146.7
7.38333	146.6
7.40000	146.5
7.41667	146.5
7.43333	146.6
7.45000	146.6
7.46667	146.5
7.48333	146.6
7.50000	146.6
7.51667	146.6
7.53333	146.7
7.55000	146.5
7.56667	146.6
7.58333	146.7
7.60000	146.5
7.61667	146.6
7.63333	146.5
7.65000	146.5
7.66667	146.6
7.68333	146.6
7.70000	146.6
7.71667	146.5
7.73333	146.7
7.75000	146.6
7.76667	146.6
7.78333	146.7
7.80000	146.6
7.81667	146.6
7.83333	146.6
7.85000	146.6
7.86667	146.7
7.88333	146.7
7.90000	146.7
7.91667	146.7
7.93333	146.5
7.95000	146.6
7.96667	146.6
7.98333	146.6
8.00000	146.6
8.01667	146.7
8.03333	146.5
8.05000	146.6
8.06667	146.6
8.08333	146.6
8.10000	146.6
8.11667	146.7
8.13333	146.6
8.15000	146.6
8.16667	146.6
8.18333	146.7
8.20000	146.7
8.21667	146.6
8.23333	146.5
8.25000	146.9
8.26667	146.6
8.28333	146.6
8.30000	146.7
8.31667	146.7
8.33333	146.6
8.35000	146.6
8.36667	146.6
8.38333	146.7
8.40000	146.6
8.41667	146.6
8.43333	146.6
8.45000	146.6
8.46667	146.7
8.48333	146.7
8.50000	146.6
8.51667	146.7
8.53333	146.7
8.55000	146.7
8.56667	146.7
8.58333	146.9
8.60000	146.7
8.61667	146.7
8.63333	146.7
8.65000	146.6
8.66667	146.6
8.68333	146.9
8.70000	146.7
8.71667	146.6
8.73333	146.6
8.75000	146.7
8.76667	146.6
8.78333	146.6
8.80000	146.7
8.81667	146.7
8.83333	146.7
8.85000	146.7
8.86667	146.7
8.88333	146.9
8.90000	146.9
8.91667	146.9
8.93333	146.7
8.95000	146.7
8.96667	146.7
8.98333	146.7
9.00000	146.6
9.01667	146.7
9.03333	146.7
9.05000	146.7
9.06667	146.9
9.08333	146.9
9.10000	146.7
9.11667	146.7
9.13333	146.9
9.15000	146.7
9.16667	146.7
9.18333	146.7
9.20000	146.7
9.21667	146.7
9.23333	146.7
9.25000	146.9
9.26667	146.6
9.28333	146.9
9.30000	146.7
9.31667	146.6
9.33333	146.7
9.35000	146.7
9.36667	146.7
9.38333	146.7
9.40000	146.7
9.41667	146.9
9.43333	146.9
9.45000	146.9
9.46667	146.9
9.48333	146.9
9.50000	146.9
9.51667	146.9
9.53333	146.7
9.55000	146.9
9.56667	146.7
9.58333	146.9
9.60000	146.9
9.61667	146.9
9.63333	146.7
9.65000	146.7
9.66667	146.7
9.68333	146.7
9.70000	146.7
9.71667	146.6
9.73333	146.9
9.75000	146.7
9.76667	146.7
9.78333	146.9
9.80000	146.9
9.81667	146.7
9.83333	146.6
9.85000	146.7
9.86667	146.9
9.88333	146.9
9.90000	146.9
9.91667	146.9
9.93333	146.7
9.95000	146.9
9.96667	146.9
9.98333	147.0
10.00000	146.9

[LC Status Trace(Pump A Degasser Pressure)]
Interval(msec)	1000
# of Points	601
Start Time(min)	0.000
End Time(min)	10.000
Intensity Units	psi
Intensity Multiplier	14.2233
R.Time (min)	Intensity
0.00000	964.6
0.01667	964.6
0.03333	964.6
0.05000	964.6
0.06667	964.6
0.08333	964.6
0.10000	964.6
0.11667	964.6
0.13333	964.6
0.15000	964.6
0.16667	964.6
0.18333	964.6
0.20000	964.6
0.21667	964.6
0.23333	964.6
0.25000	964.6
0.26667	964.6
0.28333	964.6
0.30000	964.6
0.31667	964.6
0.33333	964.6
0.35000	964.6
0.36667	964.6
0.38333	964.6
0.40000	964.6
0.41667	964.6
0.43333	964.6
0.45000	964.6
0.46667	964.6
0.48333	964.6
0.50000	964.6
0.51667	964.6
0.53333	964.6
0.55000	964.6
0.56667	964.6
0.58333	964.6
0.60000	964.6
0.61667	964.6
0.63333	964.6
0.65000	964.6
0.66667	964.6
0.68333	964.6
0.70000	964.6
0.71667	964.6
0.73333	964.6
0.75000	964.6
0.76667	964.6
0.78333	964.6
0.80000	964.6
0.81667	964.6
0.83333	964.6
0.85000	964.6
0.86667	964.6
0.88333	964.6
0.90000	964.6
0.91667	964.6
0.93333	964.6
0.95000	964.6
0.96667	964.6
0.98333	964.6
1.00000	964.6
1.01667	964.6
1.03333	964.6
1.05000	964.6
1.06667	964.6
1.08333	964.6
1.10000	964.6
1.11667	964.6
1.13333	964.6
1.15000	964.6
1.16667	964.6
1.18333	964.6
1.20000	964.6
1.21667	964.6
1.23333	964.6
1.25000	964.6
1.26667	964.6
1.28333	964.6
1.30000	964.6
1.31667	964.6
1.33333	964.6
1.35000	964.6
1.36667	964.6
1.38333	964.6
1.40000	964.6
1.41667	964.6
1.43333	964.6
1.45000	964.6
1.46667	964.6
1.48333	964.6
1.50000	964.6
1.51667	964.6
1.53333	964.6
1.55000	964.6
1.56667	964.6
1.58333	964.6
1.60000	964.6
1.61667	964.6
1.63333	964.6
1.65000	964.6
1.66667	964.6
1.68333	964.6
1.70000	964.6
1.71667	964.6
1.73333	964.6
1.75000	964.6
1.76667	964.6
1.78333	964.6
1.80000	964.6
1.81667	964.6
1.83333	964.6
1.85000	964.6
1.86667	964.6
1.88333	964.6
1.90000	964.6
1.91667	964.6
1.93333	964.6
1.95000	964.6
1.96667	964.6
1.98333	964.6
2.00000	964.6
2.01667	964.6
2.03333	964.6
2.05000	964.6
2.06667	964.6
2.08333	964.6
2.10000	964.6
2.11667	964.6
2.13333	964.6
2.15000	964.6
2.16667	964.6
2.18333	964.6
2.20000	964.6
2.21667	964.6
2.23333	964.6
2.25000	964.6
2.26667	964.6
2.28333	964.6
2.30000	964.6
2.31667	964.6
2.33333	964.6
2.35000	964.6
2.36667	964.6
2.38333	964.6
2.40000	964.6
2.41667	964.6
2.43333	964.6
2.45000	964.6
2.46667	964.6
2.48333	964.6
2.50000	964.6
2.51667	964.6
2.53333	964.6
2.55000	964.6
2.56667	964.6
2.58333	964.6
2.60000	964.6
2.61667	964.6
2.63333	964.6
2.65000	964.6
2.66667	964.6
2.68333	964.6
2.70000	964.6
2.71667	964.6
2.73333	964.6
2.75000	964.6
2.76667	964.6
2.78333	964.6
2.80000	964.6
2.81667	964.6
2.83333	964.6
2.85000	964.6
2.86667	964.6
2.88333	964.6
2.90000	964.6
2.91667	964.6
2.93333	964.6
2.95000	964.6
2.96667	964.6
2.98333	964.6
3.00000	964.6
3.01667	964.6
3.03333	964.6
3.05000	964.6
3.06667	964.6
3.08333	964.6
3.10000	964.6
3.11667	964.6
3.13333	964.6
3.15000	964.6
3.16667	964.6
3.18333	964.6
3.20000	964.6
3.21667	964.6
3.23333	964.6
3.25000	964.6
3.26667	964.6
3.28333	964.6
3.30000	964.6
3.31667	964.6
3.33333	964.6
3.35000	964.6
3.36667	964.6
3.38333	964.6
3.40000	964.6
3.41667	964.6
3.43333	964.6
3.45000	964.6
3.46667	964.6
3.48333	964.6
3.50000	964.6
3.51667	964.6
3.53333	964.6
3.55000	964.6
3.56667	964.6
3.58333	964.6
3.60000	964.6
3.61667	964.6
3.63333	964.6
3.65000	964.6
3.66667	964.6
3.68333	964.6
3.70000	964.6
3.71667	964.6
3.73333	964.6
3.75000	964.6
3.76667	964.6
3.78333	964.6
3.80000	964.6
3.81667	964.6
3.83333	964.6
3.85000	964.6
3.86667	964.6
3.88333	964.6
3.90000	964.6
3.91667	964.6
3.93333	964.6
3.95000	964.6
3.96667	964.6
3.98333	964.6
4.00000	964.6
4.01667	964.6
4.03333	964.6
4.05000	964.6
4.06667	964.6
4.08333	964.6
4.10000	964.6
4.11667	964.6
4.13333	964.6
4.15000	964.6
4.16667	964.6
4.18333	964.6
4.20000	964.6
4.21667	964.6
4.23333	964.6
4.25000	964.6
4.26667	964.6
4.28333	964.6
4.30000	964.6
4.31667	964.6
4.33333	964.6
4.35000	964.6
4.36667	964.6
4.38333	964.6
4.40000	964.6
4.41667	964.6
4.43333	964.6
4.45000	964.6
4.46667	964.6
4.48333	964.6
4.50000	964.6
4.51667	964.6
4.53333	964.6
4.55000	964.6
4.56667	964.6
4.58333	964.6
4.60000	964.6
4.61667	964.6
4.63333	964.6
4.65000	964.6
4.66667	964.6
4.68333	964.6
4.70000	964.6
4.71667	964.6
4.73333	964.6
4.75000	964.6
4.76667	964.6
4.78333	964.6
4.80000	964.6
4.81667	964.6
4.83333	964.6
4.85000	964.6
4.86667	964.6
4.88333	964.6
4.90000	964.6
4.91667	964.6
4.93333	964.6
4.95000	964.6
4.96667	964.6
4.98333	964.6
5.00000	964.6
5.01667	964.6
5.03333	964.6
5.05000	964.6
5.06667	964.6
5.08333	964.6
5.10000	964.6
5.11667	964.6
5.13333	964.6
5.15000	964.6
5.16667	964.6
5.18333	964.6
5.20000	964.6
5.21667	964.6
5.23333	964.6
5.25000	964.6
5.26667	964.6
5.28333	964.6
5.30000	964.6
5.31667	964.6
5.33333	964.6
5.35000	964.6
5.36667	964.6
5.38333	964.6
5.40000	964.6
5.41667	964.6
5.43333	964.6
5.45000	964.6
5.46667	964.6
5.48333	964.6
5.50000	964.6
5.51667	964.6
5.53333	964.6
5.55000	964.6
5.56667	964.6
5.58333	964.6
5.60000	964.6
5.61667	964.6
5.63333	964.6
5.65000	964.6
5.66667	964.6
5.68333	964.6
5.70000	964.6
5.71667	964.6
5.73333	964.6
5.75000	964.6
5.76667	964.6
5.78333	964.6
5.80000	964.6
5.81667	964.6
5.83333	964.6
5.85000	964.6
5.86667	964.6
5.88333	964.6
5.90000	964.6
5.91667	964.6
5.93333	964.6
5.95000	964.6
5.96667	964.6
5.98333	964.6
6.00000	964.6
6.01667	964.6
6.03333	964.6
6.05000	964.6
6.06667	964.6
6.08333	964.6
6.10000	964.6
6.11667	964.6
6.13333	964.6
6.15000	964.6
6.16667	964.6
6.18333	964.6
6.20000	964.6
6.21667	964.6
6.23333	964.6
6.25000	964.6
6.26667	964.6
6.28333	964.6
6.30000	964.6
6.31667	964.6
6.33333	964.6
6.35000	964.6
6.36667	964.6
6.38333	964.6
6.40000	964.6
6.41667	964.6
6.43333	964.6
6.45000	964.6
6.46667	964.6
6.48333	964.6
6.50000	964.6
6.51667	964.6
6.53333	964.6
6.55000	964.6
6.56667	964.6
6.58333	964.6
6.60000	964.6
6.61667	964.6
6.63333	964.6
6.65000	964.6
6.66667	964.6
6.68333	964.6
6.70000	964.6
6.71667	964.6
6.73333	964.6
6.75000	964.6
6.76667	964.6
6.78333	964.6
6.80000	964.6
6.81667	964.6
6.83333	964.6
6.85000	964.6
6.86667	964.6
6.88333	964.6
6.90000	964.6
6.91667	964.6
6.93333	964.6
6.95000	964.6
6.96667	964.6
6.98333	964.6
7.00000	964.6
7.01667	964.6
7.03333	964.6
7.05000	964.6
7.06667	964.6
7.08333	964.6
7.10000	964.6
7.11667	964.6
7.13333	964.6
7.15000	964.6
7.16667	964.6
7.18333	964.6
7.20000	964.6
7.21667	964.6
7.23333	964.6
7.25000	964.6
7.26667	964.6
7.28333	964.6
7.30000	964.6
7.31667	964.6
7.33333	964.6
7.35000	964.6
7.36667	964.6
7.38333	964.6
7.40000	964.6
7.41667	964.6
7.43333	964.6
7.45000	964.6
7.46667	964.6
7.48333	964.6
7.50000	964.6
7.51667	964.6
7.53333	964.6
7.55000	964.6
7.56667	964.6
7.58333	964.6
7.60000	964.6
7.61667	964.6
7.63333	964.6
7.65000	964.6
7.66667	964.6
7.68333	964.6
7.70000	964.6
7.71667	964.6
7.73333	964.6
7.75000	964.6
7.76667	964.6
7.78333	964.6
7.80000	964.6
7.81667	964.6
7.83333	964.6
7.85000	964.6
7.86667	964.6
7.88333	964.6
7.90000	964.6
7.91667	964.6
7.93333	964.6
7.95000	964.6
7.96667	964.6
7.98333	964.6
8.00000	964.6
8.01667	964.6
8.03333	964.6
8.05000	964.6
8.06667	964.6
8.08333	964.6
8.10000	964.6
8.11667	964.6
8.13333	964.6
8.15000	964.6
8.16667	964.6
8.18333	964.6
8.20000	964.6
8.21667	964.6
8.23333	964.6
8.25000	964.6
8.26667	964.6
8.28333	964.6
8.30000	964.6
8.31667	964.6
8.33333	964.6
8.35000	964.6
8.36667	964.6
8.38333	964.6
8.40000	964.6
8.41667	964.6
8.43333	964.6
8.45000	964.6
8.46667	964.6
8.48333	964.6
8.50000	964.6
8.51667	964.6
8.53333	964.6
8.55000	964.6
8.56667	964.6
8.58333	964.6
8.60000	964.6
8.61667	964.6
8.63333	964.6
8.65000	964.6
8.66667	964.6
8.68333	964.6
8.70000	964.6
8.71667	964.6
8.73333	964.6
8.75000	964.6
8.76667	964.6
8.78333	964.6
8.80000	964.6
8.81667	964.6
8.83333	964.6
8.85000	964.6
8.86667	964.6
8.88333	964.6
8.90000	964.6
8.91667	964.6
8.93333	964.6
8.95000	964.6
8.96667	964.6
8.98333	964.6
9.00000	964.6
9.01667	964.6
9.03333	964.6
9.05000	964.6
9.06667	964.6
9.08333	964.6
9.10000	964.6
9.11667	964.6
9.13333	964.6
9.15000	964.6
9.16667	964.6
9.18333	964.6
9.20000	964.6
9.21667	964.6
9.23333	964.6
9.25000	964.6
9.26667	964.6
9.28333	964.6
9.30000	964.6
9.31667	964.6
9.33333	964.6
9.35000	964.6
9.36667	964.6
9.38333	964.6
9.40000	964.6
9.41667	964.6
9.43333	964.6
9.45000	964.6
9.46667	964.6
9.48333	964.6
9.50000	964.6
9.51667	964.6
9.53333	964.6
9.55000	964.6
9.56667	964.6
9.58333	964.6
9.60000	964.6
9.61667	964.6
9.63333	964.6
9.65000	964.6
9.66667	964.6
9.68333	964.6
9.70000	964.6
9.71667	964.6
9.73333	964.6
9.75000	964.6
9.76667	964.6
9.78333	964.6
9.80000	964.6
9.81667	964.6
9.83333	964.6
9.85000	964.6
9.86667	964.6
9.88333	964.6
9.90000	964.6
9.91667	964.6
9.93333	964.6
9.95000	964.6
9.96667	964.6
9.98333	964.6
10.00000	964.6

[LC Status Trace(RF A Cell Temp.)]
Interval(msec)	1000
# of Points	601
Start Time(min)	0.000
End Time(min)	10.000
Intensity Units	C
Intensity Multiplier	1
R.Time (min)	Intensity
0.00000	40.03
0.01667	40.03
0.03333	40.02
0.05000	40.00
0.06667	40.00
0.08333	40.05
0.10000	40.03
0.11667	40.00
0.13333	40.00
0.15000	40.05
0.16667	40.00
0.18333	40.03
0.20000	40.07
0.21667	40.09
0.23333	40.08
0.25000	40.07
0.26667	40.07
0.28333	40.08
0.30000	40.07
0.31667	40.08
0.33333	40.03
0.35000	40.02
0.36667	40.02
0.38333	40.03
0.40000	40.00
0.41667	40.00
0.43333	40.02
0.45000	40.02
0.46667	40.02
0.48333	40.02
0.50000	40.02
0.51667	40.00
0.53333	39.99
0.55000	39.99
0.56667	40.00
0.58333	40.00
0.60000	39.99
0.61667	39.95
0.63333	39.93
0.65000	39.93
0.66667	39.96
0.68333	39.97
0.70000	39.98
0.71667	39.99
0.73333	40.00
0.75000	39.97
0.76667	39.99
0.78333	40.00
0.80000	40.00
0.81667	40.02
0.83333	40.00
0.85000	40.00
0.86667	40.02
0.88333	40.05
0.90000	40.00
0.91667	40.02
0.93333	40.00
0.95000	40.03
0.96667	40.00
0.98333	40.00
1.00000	40.00
1.01667	40.00
1.03333	40.00
1.05000	40.00
1.06667	40.02
1.08333	40.02
1.10000	40.02
1.11667	40.00
1.13333	40.00
1.15000	40.03
1.16667	40.02
1.18333	40.00
1.20000	39.99
1.21667	39.99
1.23333	40.00
1.25000	40.00
1.26667	39.96
1.28333	39.93
1.30000	39.95
1.31667	39.95
1.33333	39.95
1.35000	39.93
1.36667	39.93
1.38333	39.95
1.40000	39.95
1.41667	39.91
1.43333	39.93
1.45000	39.97
1.46667	39.96
1.48333	39.97
1.50000	39.95
1.51667	39.99
1.53333	39.99
1.55000	39.99
1.56667	40.00
1.58333	40.00
1.60000	39.95
1.61667	39.95
1.63333	39.93
1.65000	39.96
1.66667	39.95
1.68333	39.93
1.70000	39.93
1.71667	39.95
1.73333	39.93
1.75000	39.96
1.76667	39.93
1.78333	39.93
1.80000	39.93
1.81667	39.97
1.83333	39.93
1.85000	39.97
1.86667	39.97
1.88333	39.98
1.90000	40.00
1.91667	40.00
1.93333	40.00
1.95000	40.00
1.96667	39.96
1.98333	39.98
2.00000	40.00
2.01667	40.09
2.03333	40.05
2.05000	40.02
2.06667	40.03
2.08333	40.00
2.10000	40.00
2.11667	40.02
2.13333	40.00
2.15000	40.03
2.16667	40.00
2.18333	40.00
2.20000	40.00
2.21667	40.00
2.23333	40.00
2.25000	40.00
2.26667	40.00
2.28333	40.03
2.30000	40.03
2.31667	40.00
2.33333	40.00
2.35000	40.02
2.36667	40.00
2.38333	40.00
2.40000	40.00
2.41667	39.99
2.43333	40.00
2.45000	40.00
2.46667	40.00
2.48333	40.02
2.50000	40.02
2.51667	40.00
2.53333	40.00
2.55000	39.99
2.56667	40.00
2.58333	39.99
2.60000	39.97
2.61667	39.99
2.63333	39.96
2.65000	39.96
2.66667	39.99
2.68333	39.99
2.70000	39.99
2.71667	40.00
2.73333	40.00
2.75000	40.00
2.76667	40.03
2.78333	40.05
2.80000	40.03
2.81667	40.03
2.83333	40.06
2.85000	40.05
2.86667	40.00
2.88333	40.00
2.90000	40.00
2.91667	40.00
2.93333	40.00
2.95000	40.00
2.96667	40.03
2.98333	40.03
3.00000	40.00
3.01667	39.98
3.03333	39.93
3.05000	39.98
3.06667	40.00
3.08333	40.00
3.10000	39.99
3.11667	40.00
3.13333	39.99
3.15000	40.02
3.16667	40.00
3.18333	40.00
3.20000	40.00
3.21667	40.00
3.23333	40.00
3.25000	40.06
3.26667	40.00
3.28333	40.00
3.30000	40.00
3.31667	40.02
3.33333	40.00
3.35000	40.00
3.36667	39.98
3.38333	40.05
3.40000	40.00
3.41667	40.00
3.43333	40.00
3.45000	39.99
3.46667	40.02
3.48333	40.03
3.50000	40.00
3.51667	40.03
3.53333	40.00
3.55000	40.00
3.56667	39.99
3.58333	40.00
3.60000	39.99
3.61667	40.00
3.63333	40.00
3.65000	40.00
3.66667	39.99
3.68333	39.97
3.70000	39.95
3.71667	39.93
3.73333	39.93
3.75000	39.96
3.76667	39.97
3.78333	39.99
3.80000	39.99
3.81667	39.99
3.83333	40.00
3.85000	39.99
3.86667	40.02
3.88333	40.00
3.90000	39.99
3.91667	40.00
3.93333	40.03
3.95000	40.02
3.96667	40.03
3.98333	40.00
4.00000	40.00
4.01667	40.03
4.03333	40.05
4.05000	40.00
4.06667	40.00
4.08333	40.00
4.10000	40.00
4.11667	40.00
4.13333	40.02
4.15000	40.02
4.16667	40.00
4.18333	40.02
4.20000	40.06
4.21667	40.06
4.23333	40.00
4.25000	40.00
4.26667	40.00
4.28333	40.00
4.30000	40.00
4.31667	40.00
4.33333	40.00
4.35000	40.00
4.36667	39.93
4.38333	39.93
4.40000	39.98
4.41667	39.97
4.43333	39.99
4.45000	40.00
4.46667	40.00
4.48333	40.00
4.50000	40.00
4.51667	40.02
4.53333	40.02
4.55000	40.03
4.56667	40.05
4.58333	40.02
4.60000	40.00
4.61667	40.06
4.63333	40.03
4.65000	40.00
4.66667	39.99
4.68333	40.00
4.70000	39.99
4.71667	39.93
4.73333	39.93
4.75000	39.93
4.76667	39.98
4.78333	40.00
4.80000	40.03
4.81667	40.00
4.83333	40.02
4.85000	40.00
4.86667	40.00
4.88333	40.03
4.90000	40.03
4.91667	40.00
4.93333	40.00
4.95000	40.02
4.96667	39.99
4.98333	39.99
5.00000	40.02
5.01667	40.03
5.03333	40.02
5.05000	40.05
5.06667	40.06
5.08333	40.02
5.10000	40.00
5.11667	40.00
5.13333	39.99
5.15000	39.99
5.16667	39.97
5.18333	39.97
5.20000	39.95
5.21667	39.91
5.23333	39.91
5.25000	39.93
5.26667	39.93
5.28333	39.93
5.30000	39.98
5.31667	40.00
5.33333	40.00
5.35000	40.00
5.36667	40.03
5.38333	40.00
5.40000	40.00
5.41667	40.03
5.43333	40.06
5.45000	40.00
5.46667	40.02
5.48333	40.05
5.50000	40.00
5.51667	40.00
5.53333	40.02
5.55000	40.02
5.56667	40.00
5.58333	40.00
5.60000	40.02
5.61667	40.06
5.63333	40.02
5.65000	40.07
5.66667	40.03
5.68333	40.00
5.70000	39.99
5.71667	40.00
5.73333	40.05
5.75000	40.02
5.76667	40.00
5.78333	40.03
5.80000	40.03
5.81667	40.03
5.83333	40.00
5.85000	40.05
5.86667	40.00
5.88333	40.00
5.90000	40.00
5.91667	40.00
5.93333	40.00
5.95000	40.00
5.96667	40.02
5.98333	40.06
6.00000	40.00
6.01667	40.00
6.03333	40.00
6.05000	40.00
6.06667	40.00
6.08333	40.00
6.10000	40.00
6.11667	39.97
6.13333	39.96
6.15000	39.99
6.16667	39.97
6.18333	39.96
6.20000	39.95
6.21667	39.97
6.23333	39.95
6.25000	39.96
6.26667	39.96
6.28333	40.00
6.30000	39.99
6.31667	39.96
6.33333	39.97
6.35000	39.97
6.36667	39.97
6.38333	39.97
6.40000	39.97
6.41667	39.97
6.43333	40.00
6.45000	39.99
6.46667	39.96
6.48333	39.93
6.50000	39.93
6.51667	39.93
6.53333	39.93
6.55000	39.93
6.56667	39.95
6.58333	39.98
6.60000	39.98
6.61667	40.00
6.63333	39.95
6.65000	39.95
6.66667	39.95
6.68333	39.98
6.70000	39.96
6.71667	39.97
6.73333	39.93
6.75000	39.91
6.76667	39.96
6.78333	39.93
6.80000	39.93
6.81667	39.93
6.83333	40.00
6.85000	39.98
6.86667	39.95
6.88333	39.99
6.90000	40.00
6.91667	39.97
6.93333	39.97
6.95000	40.00
6.96667	39.99
6.98333	39.98
7.00000	39.99
7.01667	40.00
7.03333	40.00
7.05000	40.00
7.06667	39.99
7.08333	40.00
7.10000	40.03
7.11667	40.05
7.13333	40.00
7.15000	40.00
7.16667	40.00
7.18333	40.00
7.20000	40.02
7.21667	40.03
7.23333	40.03
7.25000	40.03
7.26667	40.00
7.28333	40.00
7.30000	40.02
7.31667	40.02
7.33333	40.02
7.35000	39.99
7.36667	40.00
7.38333	40.00
7.40000	40.00
7.41667	39.99
7.43333	40.00
7.45000	40.00
7.46667	40.02
7.48333	39.99
7.50000	40.00
7.51667	39.99
7.53333	39.96
7.55000	40.00
7.56667	39.98
7.58333	39.99
7.60000	39.97
7.61667	39.97
7.63333	40.00
7.65000	39.93
7.66667	39.93
7.68333	39.95
7.70000	39.97
7.71667	40.00
7.73333	40.02
7.75000	40.02
7.76667	40.06
7.78333	40.00
7.80000	40.00
7.81667	39.99
7.83333	40.03
7.85000	40.03
7.86667	40.00
7.88333	39.99
7.90000	40.00
7.91667	40.00
7.93333	40.00
7.95000	40.00
7.96667	40.00
7.98333	40.00
8.00000	40.00
8.01667	40.00
8.03333	40.00
8.05000	40.03
8.06667	40.05
8.08333	40.00
8.10000	39.99
8.11667	40.00
8.13333	40.02
8.15000	40.00
8.16667	40.00
8.18333	40.00
8.20000	40.02
8.21667	39.99
8.23333	39.98
8.25000	39.99
8.26667	39.96
8.28333	39.96
8.30000	39.93
8.31667	39.93
8.33333	39.97
8.35000	39.97
8.36667	40.00
8.38333	40.00
8.40000	40.00
8.41667	39.99
8.43333	40.00
8.45000	40.00
8.46667	39.99
8.48333	39.99
8.50000	40.02
8.51667	40.00
8.53333	40.00
8.55000	40.00
8.56667	40.00
8.58333	40.00
8.60000	40.00
8.61667	39.98
8.63333	39.98
8.65000	40.02
8.66667	40.03
8.68333	40.00
8.70000	40.06
8.71667	40.03
8.73333	40.00
8.75000	39.99
8.76667	40.00
8.78333	40.00
8.80000	40.00
8.81667	40.00
8.83333	40.00
8.85000	40.00
8.86667	40.00
8.88333	40.00
8.90000	40.00
8.91667	40.00
8.93333	40.02
8.95000	40.00
8.96667	39.99
8.98333	39.93
9.00000	39.91
9.01667	39.98
9.03333	40.00
9.05000	40.00
9.06667	40.02
9.08333	40.00
9.10000	40.00
9.11667	40.00
9.13333	40.00
9.15000	40.00
9.16667	40.00
9.18333	40.00
9.20000	40.03
9.21667	40.05
9.23333	40.00
9.25000	40.02
9.26667	40.02
9.28333	40.00
9.30000	40.00
9.31667	40.00
9.33333	39.99
9.35000	39.97
9.36667	39.95
9.38333	39.96
9.40000	39.96
9.41667	39.96
9.43333	40.00
9.45000	40.02
9.46667	40.03
9.48333	40.00
9.50000	40.00
9.51667	40.00
9.53333	39.99
9.55000	40.02
9.56667	39.99
9.58333	40.00
9.60000	39.99
9.61667	39.99
9.63333	39.99
9.65000	40.00
9.66667	40.00
9.68333	40.00
9.70000	40.00
9.71667	40.00
9.73333	40.00
9.75000	40.00
9.76667	40.00
9.78333	40.00
9.80000	40.00
9.81667	40.00
9.83333	40.00
9.85000	40.00
9.86667	39.99
9.88333	40.03
9.90000	40.00
9.91667	39.99
9.93333	40.00
9.95000	40.00
9.96667	40.00
9.98333	40.05
10.00000	40.03

[Fraction Collection Report]
# of Fractions	0
