[Header]
Application Name	LabSolutions
Version	5.81 SP1
Data File Name	C:\LabSolutions\Data\Shangwen\20170529__ATPAMP_001.lcd
Output Date	5/29/2017
Output Time	3:32:23 PM

[File Information]
Type	Data File
Generated	5/29/2017 10:38:57 AM
Generated by	System Administrator
Modified	5/29/2017 10:49:22 AM
Modified by	System Administrator

[Sample Information]
Operator Name	System Administrator
Acquired	5/29/2017 10:39:20 AM
Sample Type	0:Unknown
Level	0
Sample Name	ATPAMP
Sample ID	001
ISTD Amount1	1
ISTD Amount2	1
ISTD Amount3	1
ISTD Amount4	1
ISTD Amount5	1
ISTD Amount6	1
ISTD Amount7	1
ISTD Amount8	1
ISTD Amount9	1
ISTD Amount10	1
ISTD Amount11	1
ISTD Amount12	1
ISTD Amount13	1
ISTD Amount14	1
ISTD Amount15	1
ISTD Amount16	1
ISTD Amount17	1
ISTD Amount18	1
ISTD Amount19	1
ISTD Amount20	1
ISTD Amount21	1
ISTD Amount22	1
ISTD Amount23	1
ISTD Amount24	1
ISTD Amount25	1
ISTD Amount26	1
ISTD Amount27	1
ISTD Amount28	1
ISTD Amount29	1
ISTD Amount30	1
ISTD Amount31	1
ISTD Amount32	1
Sample Amount	1
Dilution Factor	1
Vial#	93
Injection Volume	5

[Original Files]
Data File	C:\LabSolutions\Data\Shangwen\20170524__ATPAMP_001.lcd
Method File	C:\LabSolutions\Data\Shangwen\20170524_ATPAMP.lcm
Batch File	C:\LabSolutions\Data\Shangwen\20170524_batch2.lcb
Report Format File	c:\LabSolutions\System\DEFAULT.lsr

[File Description]


[Configuration]
Instrument Name	NAIR-HPLC-Instrument1
Instrument #	1
Line #	1
# of Detectors	2
Detector ID	Detector A	AD2
Detector Name	Detector A	ELSD
# of Channels	1	1

[Peak Table(Detector A)]
# of Peaks	5
Peak#	R.Time	I.Time	F.Time	Area	Height	A/H	Conc.	Mark	ID#	Name	k'	Plate #	Plate Ht.	Tailing	Resolution	Sep.Factor	Area Ratio	Height Ratio	Conc. %	Norm Conc.
1	3.768	3.475	4.075	6950857	837961	8.295	0.000	 V 			0.000	5345	28.062	2.027	0.000	0.000	0	0	0.000	0.000
2	4.176	4.075	5.233	1271606	101980	12.469	0.000	 V 			0.108	4381	34.242	0.000	1.779	0.000	0	0	0.000	0.000
3	5.459	5.233	9.967	13119941	1573700	8.337	0.000	SV 			0.449	9527	15.745	1.307	5.392	4.147	0	0	0.000	0.000
4	9.245	8.967	9.583	37128	2967	12.514	0.000	TV 			1.454	12146	12.349	1.087	13.540	3.239	0	0	0.000	0.000
5	9.773	9.583	9.967	1456	127	11.475	0.000	TV 			1.594	14552	10.308	0.000	1.598	1.096	0	0	0.000	0.000

[Peak Table(AD2)]
# of Peaks	0

[Compound Results(Detector A)]
# of IDs	0

[Compound Results(AD2)]
# of IDs	0

[Group Results(Detector A)]
# of Groups	0

[Group Results(AD2)]
# of Groups	0

[LC Chromatogram(Detector A-Ch1)]
Interval(msec)	500
# of Points	1201
Start Time(min)	0.000
End Time(min)	10.000
Intensity Units	mV
Intensity Multiplier	0.001
Wavelength(nm)	260nm
R.Time (min)	Intensity
0.00000	-4
0.00833	-4
0.01667	-1
0.02500	-0
0.03333	1
0.04167	0
0.05000	0
0.05833	-0
0.06667	-1
0.07500	0
0.08333	0
0.09167	1
0.10000	1
0.10833	0
0.11667	-0
0.12500	-0
0.13333	0
0.14167	1
0.15000	1
0.15833	2
0.16667	1
0.17500	1
0.18333	1
0.19167	1
0.20000	1
0.20833	-0
0.21667	-0
0.22500	-1
0.23333	-1
0.24167	-2
0.25000	-3
0.25833	-2
0.26667	-2
0.27500	-2
0.28333	-2
0.29167	-2
0.30000	-2
0.30833	-2
0.31667	-3
0.32500	-2
0.33333	-2
0.34167	-2
0.35000	-2
0.35833	-2
0.36667	-3
0.37500	-4
0.38333	-4
0.39167	-4
0.40000	-4
0.40833	-5
0.41667	-5
0.42500	-5
0.43333	-3
0.44167	-2
0.45000	-2
0.45833	-2
0.46667	-2
0.47500	-3
0.48333	-3
0.49167	-3
0.50000	-3
0.50833	-3
0.51667	-4
0.52500	-5
0.53333	-5
0.54167	-6
0.55000	-6
0.55833	-6
0.56667	-6
0.57500	-6
0.58333	-6
0.59167	-7
0.60000	-7
0.60833	-7
0.61667	-7
0.62500	-7
0.63333	-7
0.64167	-6
0.65000	-5
0.65833	-4
0.66667	-5
0.67500	-6
0.68333	-7
0.69167	-8
0.70000	-8
0.70833	-9
0.71667	-8
0.72500	-7
0.73333	-8
0.74167	-8
0.75000	-8
0.75833	-9
0.76667	-10
0.77500	-10
0.78333	-9
0.79167	-8
0.80000	-9
0.80833	-9
0.81667	-9
0.82500	-9
0.83333	-8
0.84167	-8
0.85000	-8
0.85833	-7
0.86667	-7
0.87500	-7
0.88333	-7
0.89167	-7
0.90000	-7
0.90833	-7
0.91667	-7
0.92500	-7
0.93333	-7
0.94167	-7
0.95000	-7
0.95833	-7
0.96667	-8
0.97500	-8
0.98333	-8
0.99167	-9
1.00000	-8
1.00833	-8
1.01667	-8
1.02500	-8
1.03333	-7
1.04167	-7
1.05000	-7
1.05833	-7
1.06667	-7
1.07500	-8
1.08333	-9
1.09167	-9
1.10000	-9
1.10833	-8
1.11667	-7
1.12500	-6
1.13333	-7
1.14167	-8
1.15000	-9
1.15833	-9
1.16667	-8
1.17500	-7
1.18333	-8
1.19167	-9
1.20000	-10
1.20833	-10
1.21667	-10
1.22500	-10
1.23333	-10
1.24167	-9
1.25000	-9
1.25833	-9
1.26667	-9
1.27500	-11
1.28333	-11
1.29167	-10
1.30000	-10
1.30833	-10
1.31667	-11
1.32500	-11
1.33333	-10
1.34167	-9
1.35000	-9
1.35833	-8
1.36667	-8
1.37500	-8
1.38333	-7
1.39167	-7
1.40000	-7
1.40833	-7
1.41667	-6
1.42500	-6
1.43333	-5
1.44167	-5
1.45000	-5
1.45833	-6
1.46667	-7
1.47500	-7
1.48333	-8
1.49167	-8
1.50000	-7
1.50833	-6
1.51667	-7
1.52500	-8
1.53333	-8
1.54167	-8
1.55000	-8
1.55833	-8
1.56667	-7
1.57500	-7
1.58333	-7
1.59167	-8
1.60000	-8
1.60833	-8
1.61667	-8
1.62500	-8
1.63333	-8
1.64167	-9
1.65000	-10
1.65833	-10
1.66667	-10
1.67500	-10
1.68333	-9
1.69167	-9
1.70000	-9
1.70833	-9
1.71667	-10
1.72500	-10
1.73333	-9
1.74167	-9
1.75000	-9
1.75833	-9
1.76667	-9
1.77500	-9
1.78333	-9
1.79167	-8
1.80000	-7
1.80833	-7
1.81667	-7
1.82500	-8
1.83333	-8
1.84167	-8
1.85000	-9
1.85833	-10
1.86667	-11
1.87500	-11
1.88333	-11
1.89167	-10
1.90000	-10
1.90833	-10
1.91667	-9
1.92500	-8
1.93333	-8
1.94167	-8
1.95000	-8
1.95833	-8
1.96667	-9
1.97500	-8
1.98333	-9
1.99167	-9
2.00000	-9
2.00833	-8
2.01667	-7
2.02500	-7
2.03333	-8
2.04167	-9
2.05000	-9
2.05833	-9
2.06667	-8
2.07500	-8
2.08333	-8
2.09167	-9
2.10000	-9
2.10833	-9
2.11667	-9
2.12500	-10
2.13333	-11
2.14167	-11
2.15000	-11
2.15833	-11
2.16667	-11
2.17500	-12
2.18333	-10
2.19167	-10
2.20000	-10
2.20833	-11
2.21667	-11
2.22500	-11
2.23333	-10
2.24167	-10
2.25000	-11
2.25833	-11
2.26667	-9
2.27500	-8
2.28333	-8
2.29167	-8
2.30000	-8
2.30833	-9
2.31667	-10
2.32500	-11
2.33333	-12
2.34167	-12
2.35000	-12
2.35833	-11
2.36667	-11
2.37500	-12
2.38333	-12
2.39167	-12
2.40000	-12
2.40833	-12
2.41667	-13
2.42500	-13
2.43333	-13
2.44167	-13
2.45000	-13
2.45833	-13
2.46667	-13
2.47500	-12
2.48333	-12
2.49167	-12
2.50000	-13
2.50833	-13
2.51667	-13
2.52500	-12
2.53333	-12
2.54167	-13
2.55000	-13
2.55833	-13
2.56667	-13
2.57500	-13
2.58333	-13
2.59167	-14
2.60000	-13
2.60833	-14
2.61667	-14
2.62500	-13
2.63333	-13
2.64167	-14
2.65000	-14
2.65833	-14
2.66667	-14
2.67500	-14
2.68333	-15
2.69167	-15
2.70000	-15
2.70833	-16
2.71667	-17
2.72500	-17
2.73333	-15
2.74167	-15
2.75000	-15
2.75833	-16
2.76667	-17
2.77500	-16
2.78333	-16
2.79167	-16
2.80000	-16
2.80833	-16
2.81667	-15
2.82500	-15
2.83333	-16
2.84167	-17
2.85000	-17
2.85833	-17
2.86667	-17
2.87500	-17
2.88333	-17
2.89167	-16
2.90000	-16
2.90833	-16
2.91667	-15
2.92500	-15
2.93333	-14
2.94167	-13
2.95000	-12
2.95833	-12
2.96667	-11
2.97500	-10
2.98333	-9
2.99167	-9
3.00000	-10
3.00833	-10
3.01667	-10
3.02500	-9
3.03333	-7
3.04167	-5
3.05000	-4
3.05833	-2
3.06667	-1
3.07500	0
3.08333	1
3.09167	2
3.10000	3
3.10833	4
3.11667	5
3.12500	5
3.13333	6
3.14167	8
3.15000	9
3.15833	10
3.16667	12
3.17500	14
3.18333	16
3.19167	18
3.20000	22
3.20833	27
3.21667	31
3.22500	35
3.23333	39
3.24167	41
3.25000	41
3.25833	39
3.26667	37
3.27500	36
3.28333	34
3.29167	33
3.30000	34
3.30833	36
3.31667	39
3.32500	43
3.33333	49
3.34167	56
3.35000	64
3.35833	73
3.36667	83
3.37500	92
3.38333	99
3.39167	104
3.40000	107
3.40833	108
3.41667	109
3.42500	108
3.43333	106
3.44167	105
3.45000	104
3.45833	103
3.46667	103
3.47500	104
3.48333	107
3.49167	111
3.50000	114
3.50833	117
3.51667	120
3.52500	124
3.53333	128
3.54167	133
3.55000	138
3.55833	144
3.56667	151
3.57500	158
3.58333	165
3.59167	169
3.60000	171
3.60833	173
3.61667	175
3.62500	185
3.63333	236
3.64167	453
3.65000	1221
3.65833	3519
3.66667	9400
3.67500	22386
3.68333	47417
3.69167	89957
3.70000	154288
3.70833	241485
3.71667	348001
3.72500	465578
3.73333	582694
3.74167	687044
3.75000	768132
3.75833	819191
3.76667	837989
3.77500	826547
3.78333	790071
3.79167	735556
3.80000	670419
3.80833	601443
3.81667	534145
3.82500	472531
3.83333	419067
3.84167	374700
3.85000	338897
3.85833	309874
3.86667	285185
3.87500	262505
3.88333	240275
3.89167	217929
3.90000	195699
3.90833	174215
3.91667	154139
3.92500	135955
3.93333	119904
3.94167	106021
3.95000	94187
3.95833	84197
3.96667	75805
3.97500	68762
3.98333	62831
3.99167	57806
4.00000	53510
4.00833	49802
4.01667	46566
4.02500	43716
4.03333	41188
4.04167	38945
4.05000	36978
4.05833	35319
4.06667	34067
4.07500	33408
4.08333	33636
4.09167	35131
4.10000	38302
4.10833	43460
4.11667	50669
4.12500	59637
4.13333	69674
4.14167	79792
4.15000	88894
4.15833	96007
4.16667	100469
4.17500	102022
4.18333	100799
4.19167	97225
4.20000	91893
4.20833	85425
4.21667	78393
4.22500	71257
4.23333	64352
4.24167	57897
4.25000	52017
4.25833	46759
4.26667	42122
4.27500	38075
4.28333	34568
4.29167	31539
4.30000	28929
4.30833	26680
4.31667	24737
4.32500	23054
4.33333	21591
4.34167	20311
4.35000	19188
4.35833	18194
4.36667	17311
4.37500	16521
4.38333	15809
4.39167	15164
4.40000	14577
4.40833	14037
4.41667	13540
4.42500	13079
4.43333	12649
4.44167	12246
4.45000	11868
4.45833	11514
4.46667	11183
4.47500	10871
4.48333	10577
4.49167	10299
4.50000	10036
4.50833	9787
4.51667	9551
4.52500	9325
4.53333	9110
4.54167	8904
4.55000	8708
4.55833	8523
4.56667	8350
4.57500	8188
4.58333	8039
4.59167	7905
4.60000	7783
4.60833	7677
4.61667	7584
4.62500	7503
4.63333	7434
4.64167	7372
4.65000	7315
4.65833	7256
4.66667	7191
4.67500	7117
4.68333	7032
4.69167	6933
4.70000	6822
4.70833	6699
4.71667	6568
4.72500	6431
4.73333	6291
4.74167	6149
4.75000	6008
4.75833	5869
4.76667	5736
4.77500	5608
4.78333	5487
4.79167	5374
4.80000	5268
4.80833	5168
4.81667	5073
4.82500	4984
4.83333	4900
4.84167	4821
4.85000	4746
4.85833	4676
4.86667	4609
4.87500	4543
4.88333	4478
4.89167	4415
4.90000	4355
4.90833	4297
4.91667	4241
4.92500	4186
4.93333	4132
4.94167	4079
4.95000	4029
4.95833	3980
4.96667	3930
4.97500	3882
4.98333	3834
4.99167	3789
5.00000	3744
5.00833	3701
5.01667	3657
5.02500	3614
5.03333	3571
5.04167	3529
5.05000	3488
5.05833	3448
5.06667	3409
5.07500	3371
5.08333	3333
5.09167	3295
5.10000	3257
5.10833	3222
5.11667	3190
5.12500	3158
5.13333	3125
5.14167	3093
5.15000	3062
5.15833	3032
5.16667	3002
5.17500	2973
5.18333	2944
5.19167	2917
5.20000	2893
5.20833	2870
5.21667	2851
5.22500	2837
5.23333	2830
5.24167	2832
5.25000	2850
5.25833	2892
5.26667	2973
5.27500	3121
5.28333	3382
5.29167	3841
5.30000	4653
5.30833	6104
5.31667	8723
5.32500	13453
5.33333	21921
5.34167	36760
5.35000	61899
5.35833	102604
5.36667	164966
5.37500	254619
5.38333	374871
5.39167	524842
5.40000	698449
5.40833	884805
5.41667	1070009
5.42500	1239731
5.43333	1381614
5.44167	1486915
5.45000	1551140
5.45833	1573788
5.46667	1557540
5.47500	1507330
5.48333	1429415
5.49167	1330604
5.50000	1217638
5.50833	1096773
5.51667	973493
5.52500	852344
5.53333	736873
5.54167	629636
5.55000	532280
5.55833	445651
5.56667	369934
5.57500	304802
5.58333	249566
5.59167	203313
5.60000	165011
5.60833	133604
5.61667	108073
5.62500	87471
5.63333	70952
5.64167	57776
5.65000	47307
5.65833	39013
5.66667	32453
5.67500	27265
5.68333	23158
5.69167	19900
5.70000	17306
5.70833	15231
5.71667	13561
5.72500	12212
5.73333	11117
5.74167	10226
5.75000	9498
5.75833	8905
5.76667	8423
5.77500	8027
5.78333	7700
5.79167	7423
5.80000	7177
5.80833	6950
5.81667	6729
5.82500	6510
5.83333	6286
5.84167	6055
5.85000	5819
5.85833	5580
5.86667	5345
5.87500	5117
5.88333	4900
5.89167	4695
5.90000	4503
5.90833	4326
5.91667	4162
5.92500	4010
5.93333	3870
5.94167	3742
5.95000	3625
5.95833	3518
5.96667	3420
5.97500	3329
5.98333	3245
5.99167	3166
6.00000	3092
6.00833	3022
6.01667	2956
6.02500	2894
6.03333	2835
6.04167	2780
6.05000	2727
6.05833	2677
6.06667	2629
6.07500	2583
6.08333	2539
6.09167	2496
6.10000	2455
6.10833	2415
6.11667	2377
6.12500	2340
6.13333	2304
6.14167	2270
6.15000	2236
6.15833	2204
6.16667	2174
6.17500	2143
6.18333	2114
6.19167	2086
6.20000	2058
6.20833	2031
6.21667	2004
6.22500	1979
6.23333	1955
6.24167	1932
6.25000	1908
6.25833	1885
6.26667	1862
6.27500	1841
6.28333	1820
6.29167	1800
6.30000	1780
6.30833	1760
6.31667	1740
6.32500	1721
6.33333	1702
6.34167	1684
6.35000	1667
6.35833	1651
6.36667	1635
6.37500	1620
6.38333	1606
6.39167	1592
6.40000	1578
6.40833	1564
6.41667	1550
6.42500	1536
6.43333	1522
6.44167	1510
6.45000	1498
6.45833	1486
6.46667	1474
6.47500	1461
6.48333	1448
6.49167	1436
6.50000	1424
6.50833	1412
6.51667	1399
6.52500	1388
6.53333	1376
6.54167	1365
6.55000	1354
6.55833	1342
6.56667	1331
6.57500	1320
6.58333	1309
6.59167	1298
6.60000	1288
6.60833	1277
6.61667	1268
6.62500	1259
6.63333	1249
6.64167	1240
6.65000	1231
6.65833	1222
6.66667	1213
6.67500	1204
6.68333	1196
6.69167	1187
6.70000	1178
6.70833	1170
6.71667	1161
6.72500	1153
6.73333	1144
6.74167	1135
6.75000	1127
6.75833	1117
6.76667	1109
6.77500	1101
6.78333	1092
6.79167	1083
6.80000	1076
6.80833	1067
6.81667	1058
6.82500	1050
6.83333	1043
6.84167	1036
6.85000	1028
6.85833	1021
6.86667	1014
6.87500	1008
6.88333	1002
6.89167	995
6.90000	987
6.90833	980
6.91667	973
6.92500	966
6.93333	960
6.94167	955
6.95000	949
6.95833	943
6.96667	938
6.97500	934
6.98333	927
6.99167	920
7.00000	914
7.00833	908
7.01667	903
7.02500	898
7.03333	893
7.04167	888
7.05000	882
7.05833	876
7.06667	871
7.07500	865
7.08333	860
7.09167	855
7.10000	850
7.10833	845
7.11667	840
7.12500	834
7.13333	828
7.14167	823
7.15000	819
7.15833	814
7.16667	809
7.17500	804
7.18333	799
7.19167	795
7.20000	791
7.20833	787
7.21667	783
7.22500	779
7.23333	776
7.24167	771
7.25000	766
7.25833	762
7.26667	758
7.27500	754
7.28333	750
7.29167	745
7.30000	741
7.30833	737
7.31667	733
7.32500	729
7.33333	726
7.34167	722
7.35000	718
7.35833	714
7.36667	709
7.37500	705
7.38333	701
7.39167	698
7.40000	695
7.40833	691
7.41667	687
7.42500	684
7.43333	680
7.44167	676
7.45000	673
7.45833	670
7.46667	667
7.47500	664
7.48333	660
7.49167	656
7.50000	654
7.50833	651
7.51667	649
7.52500	647
7.53333	643
7.54167	639
7.55000	636
7.55833	634
7.56667	630
7.57500	626
7.58333	624
7.59167	622
7.60000	619
7.60833	616
7.61667	613
7.62500	609
7.63333	606
7.64167	603
7.65000	601
7.65833	599
7.66667	596
7.67500	593
7.68333	589
7.69167	585
7.70000	583
7.70833	580
7.71667	577
7.72500	575
7.73333	572
7.74167	570
7.75000	567
7.75833	564
7.76667	562
7.77500	560
7.78333	557
7.79167	554
7.80000	551
7.80833	550
7.81667	548
7.82500	545
7.83333	544
7.84167	542
7.85000	539
7.85833	536
7.86667	534
7.87500	532
7.88333	529
7.89167	527
7.90000	524
7.90833	522
7.91667	520
7.92500	517
7.93333	514
7.94167	512
7.95000	510
7.95833	508
7.96667	506
7.97500	504
7.98333	503
7.99167	501
8.00000	499
8.00833	497
8.01667	495
8.02500	493
8.03333	492
8.04167	490
8.05000	487
8.05833	484
8.06667	482
8.07500	480
8.08333	478
8.09167	477
8.10000	476
8.10833	474
8.11667	472
8.12500	471
8.13333	469
8.14167	467
8.15000	465
8.15833	463
8.16667	461
8.17500	460
8.18333	458
8.19167	456
8.20000	455
8.20833	453
8.21667	451
8.22500	448
8.23333	446
8.24167	444
8.25000	441
8.25833	438
8.26667	436
8.27500	435
8.28333	434
8.29167	432
8.30000	431
8.30833	430
8.31667	429
8.32500	428
8.33333	427
8.34167	425
8.35000	423
8.35833	421
8.36667	420
8.37500	418
8.38333	416
8.39167	414
8.40000	412
8.40833	409
8.41667	408
8.42500	408
8.43333	406
8.44167	404
8.45000	402
8.45833	401
8.46667	399
8.47500	398
8.48333	395
8.49167	393
8.50000	392
8.50833	391
8.51667	390
8.52500	389
8.53333	388
8.54167	387
8.55000	386
8.55833	384
8.56667	383
8.57500	382
8.58333	380
8.59167	379
8.60000	379
8.60833	377
8.61667	375
8.62500	374
8.63333	374
8.64167	373
8.65000	372
8.65833	370
8.66667	369
8.67500	369
8.68333	369
8.69167	369
8.70000	369
8.70833	369
8.71667	369
8.72500	370
8.73333	371
8.74167	373
8.75000	374
8.75833	376
8.76667	378
8.77500	380
8.78333	383
8.79167	386
8.80000	388
8.80833	389
8.81667	392
8.82500	395
8.83333	397
8.84167	398
8.85000	397
8.85833	396
8.86667	395
8.87500	394
8.88333	393
8.89167	391
8.90000	388
8.90833	385
8.91667	382
8.92500	378
8.93333	374
8.94167	371
8.95000	368
8.95833	365
8.96667	363
8.97500	361
8.98333	361
8.99167	363
9.00000	367
9.00833	373
9.01667	383
9.02500	396
9.03333	414
9.04167	438
9.05000	469
9.05833	506
9.06667	554
9.07500	613
9.08333	684
9.09167	770
9.10000	869
9.10833	982
9.11667	1111
9.12500	1255
9.13333	1411
9.14167	1580
9.15000	1759
9.15833	1947
9.16667	2139
9.17500	2331
9.18333	2518
9.19167	2694
9.20000	2852
9.20833	2990
9.21667	3105
9.22500	3193
9.23333	3253
9.24167	3282
9.25000	3280
9.25833	3249
9.26667	3188
9.27500	3099
9.28333	2986
9.29167	2854
9.30000	2706
9.30833	2545
9.31667	2376
9.32500	2202
9.33333	2027
9.34167	1858
9.35000	1695
9.35833	1541
9.36667	1396
9.37500	1261
9.38333	1137
9.39167	1026
9.40000	925
9.40833	836
9.41667	757
9.42500	687
9.43333	626
9.44167	575
9.45000	529
9.45833	490
9.46667	457
9.47500	429
9.48333	405
9.49167	386
9.50000	369
9.50833	353
9.51667	340
9.52500	330
9.53333	322
9.54167	316
9.55000	310
9.55833	306
9.56667	303
9.57500	300
9.58333	297
9.59167	296
9.60000	296
9.60833	296
9.61667	298
9.62500	300
9.63333	304
9.64167	309
9.65000	314
9.65833	319
9.66667	324
9.67500	331
9.68333	339
9.69167	347
9.70000	355
9.70833	362
9.71667	368
9.72500	374
9.73333	379
9.74167	384
9.75000	387
9.75833	390
9.76667	392
9.77500	392
9.78333	390
9.79167	387
9.80000	381
9.80833	375
9.81667	368
9.82500	361
9.83333	354
9.84167	347
9.85000	338
9.85833	329
9.86667	320
9.87500	312
9.88333	304
9.89167	295
9.90000	288
9.90833	280
9.91667	273
9.92500	267
9.93333	261
9.94167	256
9.95000	252
9.95833	249
9.96667	246
9.97500	243
9.98333	240
9.99167	237
10.00000	235

[LC Status Trace(Pump A Pressure)]
Interval(msec)	1000
# of Points	601
Start Time(min)	0.000
End Time(min)	10.000
Intensity Units	psi
Intensity Multiplier	14.2233
R.Time (min)	Intensity
0.00000	146.3
0.01667	146.3
0.03333	101.0
0.05000	112.9
0.06667	120.7
0.08333	123.4
0.10000	128.6
0.11667	130.9
0.13333	134.1
0.15000	136.7
0.16667	138.9
0.18333	140.7
0.20000	141.3
0.21667	141.8
0.23333	142.8
0.25000	143.7
0.26667	144.1
0.28333	144.4
0.30000	144.8
0.31667	145.2
0.33333	145.5
0.35000	145.5
0.36667	145.5
0.38333	145.9
0.40000	145.9
0.41667	145.9
0.43333	146.2
0.45000	146.2
0.46667	146.2
0.48333	146.3
0.50000	146.3
0.51667	146.3
0.53333	146.3
0.55000	146.3
0.56667	146.3
0.58333	146.3
0.60000	146.3
0.61667	146.6
0.63333	146.5
0.65000	146.5
0.66667	146.3
0.68333	146.5
0.70000	146.5
0.71667	146.3
0.73333	146.3
0.75000	146.6
0.76667	146.6
0.78333	146.6
0.80000	146.5
0.81667	146.3
0.83333	146.6
0.85000	146.5
0.86667	146.5
0.88333	146.3
0.90000	146.5
0.91667	146.5
0.93333	146.3
0.95000	146.5
0.96667	146.5
0.98333	146.5
1.00000	146.3
1.01667	146.2
1.03333	146.5
1.05000	146.3
1.06667	146.5
1.08333	146.5
1.10000	146.3
1.11667	146.5
1.13333	146.3
1.15000	146.5
1.16667	146.3
1.18333	146.5
1.20000	146.3
1.21667	146.5
1.23333	146.5
1.25000	146.6
1.26667	146.3
1.28333	146.3
1.30000	146.5
1.31667	146.3
1.33333	146.3
1.35000	146.3
1.36667	146.5
1.38333	146.3
1.40000	146.3
1.41667	146.6
1.43333	146.5
1.45000	146.3
1.46667	146.5
1.48333	146.5
1.50000	146.5
1.51667	146.5
1.53333	146.3
1.55000	146.5
1.56667	146.5
1.58333	146.3
1.60000	146.5
1.61667	146.3
1.63333	146.6
1.65000	146.5
1.66667	146.3
1.68333	146.3
1.70000	146.3
1.71667	146.3
1.73333	146.3
1.75000	146.3
1.76667	146.3
1.78333	146.5
1.80000	146.3
1.81667	146.3
1.83333	146.3
1.85000	146.5
1.86667	146.3
1.88333	146.3
1.90000	146.3
1.91667	146.3
1.93333	146.5
1.95000	146.3
1.96667	146.3
1.98333	146.3
2.00000	146.3
2.01667	146.3
2.03333	146.5
2.05000	146.3
2.06667	146.3
2.08333	146.5
2.10000	146.5
2.11667	146.5
2.13333	146.3
2.15000	146.5
2.16667	146.3
2.18333	146.3
2.20000	146.3
2.21667	146.2
2.23333	146.2
2.25000	146.2
2.26667	146.3
2.28333	146.2
2.30000	146.3
2.31667	146.3
2.33333	146.3
2.35000	146.5
2.36667	146.3
2.38333	146.3
2.40000	146.2
2.41667	146.3
2.43333	146.3
2.45000	146.3
2.46667	146.3
2.48333	146.3
2.50000	146.3
2.51667	146.3
2.53333	146.3
2.55000	146.5
2.56667	146.5
2.58333	146.5
2.60000	146.3
2.61667	146.3
2.63333	146.3
2.65000	146.3
2.66667	146.3
2.68333	146.3
2.70000	146.3
2.71667	146.5
2.73333	146.3
2.75000	146.3
2.76667	146.5
2.78333	146.2
2.80000	146.3
2.81667	146.3
2.83333	146.3
2.85000	146.3
2.86667	146.2
2.88333	146.3
2.90000	146.3
2.91667	146.3
2.93333	146.3
2.95000	146.3
2.96667	146.2
2.98333	146.5
3.00000	146.3
3.01667	146.5
3.03333	146.3
3.05000	146.3
3.06667	146.5
3.08333	146.3
3.10000	146.3
3.11667	146.6
3.13333	146.3
3.15000	146.3
3.16667	146.5
3.18333	146.5
3.20000	146.3
3.21667	146.5
3.23333	146.3
3.25000	146.3
3.26667	146.5
3.28333	146.2
3.30000	146.3
3.31667	146.5
3.33333	146.5
3.35000	146.3
3.36667	146.5
3.38333	146.3
3.40000	146.3
3.41667	146.3
3.43333	146.3
3.45000	146.5
3.46667	146.5
3.48333	146.3
3.50000	146.3
3.51667	146.3
3.53333	146.5
3.55000	146.5
3.56667	146.3
3.58333	146.5
3.60000	146.5
3.61667	146.5
3.63333	146.3
3.65000	146.3
3.66667	146.3
3.68333	146.3
3.70000	146.3
3.71667	146.3
3.73333	146.3
3.75000	146.6
3.76667	146.3
3.78333	146.3
3.80000	146.5
3.81667	146.3
3.83333	146.5
3.85000	146.3
3.86667	146.2
3.88333	146.3
3.90000	146.3
3.91667	146.3
3.93333	146.3
3.95000	146.3
3.96667	146.3
3.98333	146.5
4.00000	146.3
4.01667	146.3
4.03333	146.3
4.05000	146.5
4.06667	146.3
4.08333	146.3
4.10000	146.5
4.11667	146.3
4.13333	146.2
4.15000	146.3
4.16667	146.5
4.18333	146.3
4.20000	146.5
4.21667	146.3
4.23333	146.3
4.25000	146.5
4.26667	146.3
4.28333	146.5
4.30000	146.5
4.31667	146.5
4.33333	146.5
4.35000	146.5
4.36667	146.3
4.38333	146.5
4.40000	146.3
4.41667	146.3
4.43333	146.3
4.45000	146.3
4.46667	146.3
4.48333	146.3
4.50000	146.3
4.51667	146.5
4.53333	146.5
4.55000	146.5
4.56667	146.3
4.58333	146.3
4.60000	146.3
4.61667	146.3
4.63333	146.5
4.65000	146.5
4.66667	146.5
4.68333	146.5
4.70000	146.5
4.71667	146.5
4.73333	146.2
4.75000	146.3
4.76667	146.3
4.78333	146.6
4.80000	146.3
4.81667	146.5
4.83333	146.5
4.85000	146.6
4.86667	146.3
4.88333	146.3
4.90000	146.3
4.91667	146.5
4.93333	146.3
4.95000	146.3
4.96667	146.5
4.98333	146.3
5.00000	146.3
5.01667	146.5
5.03333	146.3
5.05000	146.3
5.06667	146.3
5.08333	146.5
5.10000	146.3
5.11667	146.5
5.13333	146.3
5.15000	146.3
5.16667	146.3
5.18333	146.2
5.20000	146.3
5.21667	146.3
5.23333	146.3
5.25000	146.3
5.26667	146.3
5.28333	146.2
5.30000	146.3
5.31667	146.3
5.33333	146.3
5.35000	146.3
5.36667	146.2
5.38333	146.3
5.40000	146.5
5.41667	146.5
5.43333	146.2
5.45000	146.2
5.46667	146.2
5.48333	146.5
5.50000	146.3
5.51667	146.3
5.53333	146.2
5.55000	146.3
5.56667	146.3
5.58333	146.3
5.60000	146.3
5.61667	146.3
5.63333	146.2
5.65000	146.3
5.66667	146.3
5.68333	146.3
5.70000	146.2
5.71667	146.3
5.73333	146.5
5.75000	146.3
5.76667	146.3
5.78333	146.2
5.80000	146.3
5.81667	146.2
5.83333	146.3
5.85000	146.3
5.86667	146.3
5.88333	146.5
5.90000	146.3
5.91667	146.2
5.93333	146.3
5.95000	146.3
5.96667	146.2
5.98333	146.2
6.00000	146.3
6.01667	146.3
6.03333	146.1
6.05000	146.3
6.06667	146.3
6.08333	146.3
6.10000	146.3
6.11667	146.2
6.13333	146.2
6.15000	146.3
6.16667	146.3
6.18333	146.3
6.20000	146.3
6.21667	146.2
6.23333	146.2
6.25000	146.3
6.26667	146.2
6.28333	146.3
6.30000	146.6
6.31667	146.3
6.33333	146.2
6.35000	146.2
6.36667	146.3
6.38333	146.2
6.40000	146.3
6.41667	146.3
6.43333	146.5
6.45000	146.3
6.46667	146.3
6.48333	146.3
6.50000	146.3
6.51667	146.3
6.53333	146.2
6.55000	146.3
6.56667	146.5
6.58333	146.2
6.60000	146.3
6.61667	146.3
6.63333	146.5
6.65000	146.2
6.66667	146.3
6.68333	146.3
6.70000	146.3
6.71667	146.3
6.73333	146.3
6.75000	146.5
6.76667	146.3
6.78333	146.3
6.80000	146.5
6.81667	146.2
6.83333	146.3
6.85000	146.3
6.86667	146.3
6.88333	146.5
6.90000	146.2
6.91667	146.2
6.93333	146.3
6.95000	146.3
6.96667	146.3
6.98333	146.3
7.00000	146.3
7.01667	146.3
7.03333	146.3
7.05000	146.2
7.06667	146.3
7.08333	146.3
7.10000	146.3
7.11667	146.3
7.13333	146.2
7.15000	146.3
7.16667	146.3
7.18333	146.2
7.20000	146.3
7.21667	146.2
7.23333	146.3
7.25000	146.2
7.26667	146.5
7.28333	146.5
7.30000	146.5
7.31667	146.3
7.33333	146.3
7.35000	146.3
7.36667	146.3
7.38333	146.2
7.40000	146.3
7.41667	146.3
7.43333	146.3
7.45000	146.3
7.46667	146.2
7.48333	146.2
7.50000	146.3
7.51667	146.5
7.53333	146.3
7.55000	146.5
7.56667	146.3
7.58333	146.2
7.60000	146.3
7.61667	146.3
7.63333	146.2
7.65000	146.3
7.66667	146.2
7.68333	146.2
7.70000	146.3
7.71667	146.3
7.73333	146.3
7.75000	146.2
7.76667	146.3
7.78333	146.3
7.80000	146.2
7.81667	146.3
7.83333	146.3
7.85000	146.2
7.86667	146.3
7.88333	146.2
7.90000	146.3
7.91667	146.3
7.93333	146.3
7.95000	146.5
7.96667	146.2
7.98333	146.3
8.00000	146.2
8.01667	146.3
8.03333	146.3
8.05000	146.2
8.06667	146.3
8.08333	146.3
8.10000	146.3
8.11667	146.2
8.13333	146.3
8.15000	146.3
8.16667	146.3
8.18333	146.5
8.20000	146.3
8.21667	146.3
8.23333	146.2
8.25000	146.3
8.26667	146.3
8.28333	146.3
8.30000	146.2
8.31667	146.2
8.33333	146.2
8.35000	146.2
8.36667	146.2
8.38333	146.2
8.40000	146.3
8.41667	146.3
8.43333	146.2
8.45000	146.3
8.46667	146.3
8.48333	146.3
8.50000	146.3
8.51667	146.3
8.53333	146.2
8.55000	146.3
8.56667	146.2
8.58333	146.2
8.60000	146.2
8.61667	146.3
8.63333	146.3
8.65000	146.2
8.66667	146.3
8.68333	146.2
8.70000	146.3
8.71667	146.2
8.73333	146.2
8.75000	146.2
8.76667	146.2
8.78333	146.3
8.80000	146.3
8.81667	146.3
8.83333	146.3
8.85000	146.3
8.86667	146.2
8.88333	146.3
8.90000	146.2
8.91667	146.2
8.93333	146.2
8.95000	146.3
8.96667	146.3
8.98333	146.3
9.00000	146.3
9.01667	146.3
9.03333	146.3
9.05000	146.2
9.06667	146.3
9.08333	146.2
9.10000	146.3
9.11667	146.3
9.13333	146.5
9.15000	146.3
9.16667	146.2
9.18333	146.3
9.20000	146.3
9.21667	146.2
9.23333	146.5
9.25000	146.3
9.26667	146.2
9.28333	146.2
9.30000	146.5
9.31667	146.3
9.33333	146.3
9.35000	146.3
9.36667	146.5
9.38333	146.3
9.40000	146.3
9.41667	146.2
9.43333	146.2
9.45000	146.3
9.46667	146.3
9.48333	146.3
9.50000	146.3
9.51667	146.3
9.53333	146.3
9.55000	146.3
9.56667	146.3
9.58333	146.3
9.60000	146.3
9.61667	146.3
9.63333	146.3
9.65000	146.3
9.66667	146.2
9.68333	146.2
9.70000	146.3
9.71667	146.2
9.73333	146.3
9.75000	146.3
9.76667	146.2
9.78333	146.3
9.80000	146.5
9.81667	146.2
9.83333	146.3
9.85000	146.2
9.86667	146.3
9.88333	146.2
9.90000	146.3
9.91667	146.3
9.93333	146.3
9.95000	146.3
9.96667	146.3
9.98333	146.2
10.00000	146.3

[LC Status Trace(Pump A Degasser Pressure)]
Interval(msec)	1000
# of Points	601
Start Time(min)	0.000
End Time(min)	10.000
Intensity Units	psi
Intensity Multiplier	14.2233
R.Time (min)	Intensity
0.00000	964.6
0.01667	964.6
0.03333	964.6
0.05000	964.6
0.06667	964.6
0.08333	964.6
0.10000	964.6
0.11667	964.6
0.13333	964.6
0.15000	964.6
0.16667	964.6
0.18333	964.6
0.20000	964.6
0.21667	964.6
0.23333	964.6
0.25000	964.6
0.26667	964.6
0.28333	964.6
0.30000	964.6
0.31667	964.6
0.33333	964.6
0.35000	964.6
0.36667	964.6
0.38333	964.6
0.40000	964.6
0.41667	964.6
0.43333	964.6
0.45000	964.6
0.46667	964.6
0.48333	964.6
0.50000	964.6
0.51667	964.6
0.53333	964.6
0.55000	964.6
0.56667	964.6
0.58333	964.6
0.60000	964.6
0.61667	964.6
0.63333	964.6
0.65000	964.6
0.66667	964.6
0.68333	964.6
0.70000	964.6
0.71667	964.6
0.73333	964.6
0.75000	964.6
0.76667	964.6
0.78333	964.6
0.80000	964.6
0.81667	964.6
0.83333	964.6
0.85000	964.6
0.86667	964.6
0.88333	964.6
0.90000	964.6
0.91667	964.6
0.93333	964.6
0.95000	964.6
0.96667	964.6
0.98333	964.6
1.00000	964.6
1.01667	964.6
1.03333	964.6
1.05000	964.6
1.06667	964.6
1.08333	964.6
1.10000	964.6
1.11667	964.6
1.13333	964.6
1.15000	964.6
1.16667	964.6
1.18333	964.6
1.20000	964.6
1.21667	964.6
1.23333	964.6
1.25000	964.6
1.26667	964.6
1.28333	964.6
1.30000	964.6
1.31667	964.6
1.33333	964.6
1.35000	964.6
1.36667	964.6
1.38333	964.6
1.40000	964.6
1.41667	964.6
1.43333	964.6
1.45000	964.6
1.46667	964.6
1.48333	964.6
1.50000	964.6
1.51667	964.6
1.53333	964.6
1.55000	964.6
1.56667	964.6
1.58333	964.6
1.60000	964.6
1.61667	964.6
1.63333	964.6
1.65000	964.6
1.66667	964.6
1.68333	964.6
1.70000	964.6
1.71667	964.6
1.73333	964.6
1.75000	964.6
1.76667	964.6
1.78333	964.6
1.80000	964.6
1.81667	964.6
1.83333	964.6
1.85000	964.6
1.86667	964.6
1.88333	964.6
1.90000	964.6
1.91667	964.6
1.93333	964.6
1.95000	964.6
1.96667	964.6
1.98333	964.6
2.00000	964.6
2.01667	964.6
2.03333	964.6
2.05000	964.6
2.06667	964.6
2.08333	964.6
2.10000	964.6
2.11667	964.6
2.13333	964.6
2.15000	964.6
2.16667	964.6
2.18333	964.6
2.20000	964.6
2.21667	964.6
2.23333	964.6
2.25000	964.6
2.26667	964.6
2.28333	964.6
2.30000	964.6
2.31667	964.6
2.33333	964.6
2.35000	964.6
2.36667	964.6
2.38333	964.6
2.40000	964.6
2.41667	964.6
2.43333	964.6
2.45000	964.6
2.46667	964.6
2.48333	964.6
2.50000	964.6
2.51667	964.6
2.53333	964.6
2.55000	964.6
2.56667	964.6
2.58333	964.6
2.60000	964.6
2.61667	964.6
2.63333	964.6
2.65000	964.6
2.66667	964.6
2.68333	964.6
2.70000	964.6
2.71667	964.6
2.73333	964.6
2.75000	964.6
2.76667	964.6
2.78333	964.6
2.80000	964.6
2.81667	964.6
2.83333	964.6
2.85000	964.6
2.86667	964.6
2.88333	964.6
2.90000	964.6
2.91667	964.6
2.93333	964.6
2.95000	964.6
2.96667	964.6
2.98333	964.6
3.00000	964.6
3.01667	964.6
3.03333	964.6
3.05000	964.6
3.06667	964.6
3.08333	964.6
3.10000	964.6
3.11667	964.6
3.13333	964.6
3.15000	964.6
3.16667	964.6
3.18333	964.6
3.20000	964.6
3.21667	964.6
3.23333	964.6
3.25000	964.6
3.26667	964.6
3.28333	964.6
3.30000	964.6
3.31667	964.6
3.33333	964.6
3.35000	964.6
3.36667	964.6
3.38333	964.6
3.40000	964.6
3.41667	964.6
3.43333	964.6
3.45000	964.6
3.46667	964.6
3.48333	964.6
3.50000	964.6
3.51667	964.6
3.53333	964.6
3.55000	964.6
3.56667	964.6
3.58333	964.6
3.60000	964.6
3.61667	964.6
3.63333	964.6
3.65000	964.6
3.66667	964.6
3.68333	964.6
3.70000	964.6
3.71667	964.6
3.73333	964.6
3.75000	964.6
3.76667	964.6
3.78333	964.6
3.80000	964.6
3.81667	964.6
3.83333	964.6
3.85000	964.6
3.86667	964.6
3.88333	964.6
3.90000	964.6
3.91667	964.6
3.93333	964.6
3.95000	964.6
3.96667	964.6
3.98333	964.6
4.00000	964.6
4.01667	964.6
4.03333	964.6
4.05000	964.6
4.06667	964.6
4.08333	964.6
4.10000	964.6
4.11667	964.6
4.13333	964.6
4.15000	964.6
4.16667	964.6
4.18333	964.6
4.20000	964.6
4.21667	964.6
4.23333	964.6
4.25000	964.6
4.26667	964.6
4.28333	964.6
4.30000	964.6
4.31667	964.6
4.33333	964.6
4.35000	964.6
4.36667	964.6
4.38333	964.6
4.40000	964.6
4.41667	964.6
4.43333	964.6
4.45000	964.6
4.46667	964.6
4.48333	964.6
4.50000	964.6
4.51667	964.6
4.53333	964.6
4.55000	964.6
4.56667	964.6
4.58333	964.6
4.60000	964.6
4.61667	964.6
4.63333	964.6
4.65000	964.6
4.66667	964.6
4.68333	964.6
4.70000	964.6
4.71667	964.6
4.73333	964.6
4.75000	964.6
4.76667	964.6
4.78333	964.6
4.80000	964.6
4.81667	964.6
4.83333	964.6
4.85000	964.6
4.86667	964.6
4.88333	964.6
4.90000	964.6
4.91667	964.6
4.93333	964.6
4.95000	964.6
4.96667	964.6
4.98333	964.6
5.00000	964.6
5.01667	964.6
5.03333	964.6
5.05000	964.6
5.06667	964.6
5.08333	964.6
5.10000	964.6
5.11667	964.6
5.13333	964.6
5.15000	964.6
5.16667	964.6
5.18333	964.6
5.20000	964.6
5.21667	964.6
5.23333	964.6
5.25000	964.6
5.26667	964.6
5.28333	964.6
5.30000	964.6
5.31667	964.6
5.33333	964.6
5.35000	964.6
5.36667	964.6
5.38333	964.6
5.40000	964.6
5.41667	964.6
5.43333	964.6
5.45000	964.6
5.46667	964.6
5.48333	964.6
5.50000	964.6
5.51667	964.6
5.53333	964.6
5.55000	964.6
5.56667	964.6
5.58333	964.6
5.60000	964.6
5.61667	964.6
5.63333	964.6
5.65000	964.6
5.66667	964.6
5.68333	964.6
5.70000	964.6
5.71667	964.6
5.73333	964.6
5.75000	964.6
5.76667	964.6
5.78333	964.6
5.80000	964.6
5.81667	964.6
5.83333	964.6
5.85000	964.6
5.86667	964.6
5.88333	964.6
5.90000	964.6
5.91667	964.6
5.93333	964.6
5.95000	964.6
5.96667	964.6
5.98333	964.6
6.00000	964.6
6.01667	964.6
6.03333	964.6
6.05000	964.6
6.06667	964.6
6.08333	964.6
6.10000	964.6
6.11667	964.6
6.13333	964.6
6.15000	964.6
6.16667	964.6
6.18333	964.6
6.20000	964.6
6.21667	964.6
6.23333	964.6
6.25000	964.6
6.26667	964.6
6.28333	964.6
6.30000	964.6
6.31667	964.6
6.33333	964.6
6.35000	964.6
6.36667	964.6
6.38333	964.6
6.40000	964.6
6.41667	964.6
6.43333	964.6
6.45000	964.6
6.46667	964.6
6.48333	964.6
6.50000	964.6
6.51667	964.6
6.53333	964.6
6.55000	964.6
6.56667	964.6
6.58333	964.6
6.60000	964.6
6.61667	964.6
6.63333	964.6
6.65000	964.6
6.66667	964.6
6.68333	964.6
6.70000	964.6
6.71667	964.6
6.73333	964.6
6.75000	964.6
6.76667	964.6
6.78333	964.6
6.80000	964.6
6.81667	964.6
6.83333	964.6
6.85000	964.6
6.86667	964.6
6.88333	964.6
6.90000	964.6
6.91667	964.6
6.93333	964.6
6.95000	964.6
6.96667	964.6
6.98333	964.6
7.00000	964.6
7.01667	964.6
7.03333	964.6
7.05000	964.6
7.06667	964.6
7.08333	964.6
7.10000	964.6
7.11667	964.6
7.13333	964.6
7.15000	964.6
7.16667	964.6
7.18333	964.6
7.20000	964.6
7.21667	964.6
7.23333	964.6
7.25000	964.6
7.26667	964.6
7.28333	964.6
7.30000	964.6
7.31667	964.6
7.33333	964.6
7.35000	964.6
7.36667	964.6
7.38333	964.6
7.40000	964.6
7.41667	964.6
7.43333	964.6
7.45000	964.6
7.46667	964.6
7.48333	964.6
7.50000	964.6
7.51667	964.6
7.53333	964.6
7.55000	964.6
7.56667	964.6
7.58333	964.6
7.60000	964.6
7.61667	964.6
7.63333	964.6
7.65000	964.6
7.66667	964.6
7.68333	964.6
7.70000	964.6
7.71667	964.6
7.73333	964.6
7.75000	964.6
7.76667	964.6
7.78333	964.6
7.80000	964.6
7.81667	964.6
7.83333	964.6
7.85000	964.6
7.86667	964.6
7.88333	964.6
7.90000	964.6
7.91667	964.6
7.93333	964.6
7.95000	964.6
7.96667	964.6
7.98333	964.6
8.00000	964.6
8.01667	964.6
8.03333	964.6
8.05000	964.6
8.06667	964.6
8.08333	964.6
8.10000	964.6
8.11667	964.6
8.13333	964.6
8.15000	964.6
8.16667	964.6
8.18333	964.6
8.20000	964.6
8.21667	964.6
8.23333	964.6
8.25000	964.6
8.26667	964.6
8.28333	964.6
8.30000	964.6
8.31667	964.6
8.33333	964.6
8.35000	964.6
8.36667	964.6
8.38333	964.6
8.40000	964.6
8.41667	964.6
8.43333	964.6
8.45000	964.6
8.46667	964.6
8.48333	964.6
8.50000	964.6
8.51667	964.6
8.53333	964.6
8.55000	964.6
8.56667	964.6
8.58333	964.6
8.60000	964.6
8.61667	964.6
8.63333	964.6
8.65000	964.6
8.66667	964.6
8.68333	964.6
8.70000	964.6
8.71667	964.6
8.73333	964.6
8.75000	964.6
8.76667	964.6
8.78333	964.6
8.80000	964.6
8.81667	964.6
8.83333	964.6
8.85000	964.6
8.86667	964.6
8.88333	964.6
8.90000	964.6
8.91667	964.6
8.93333	964.6
8.95000	964.6
8.96667	964.6
8.98333	964.6
9.00000	964.6
9.01667	964.6
9.03333	964.6
9.05000	964.6
9.06667	964.6
9.08333	964.6
9.10000	964.6
9.11667	964.6
9.13333	964.6
9.15000	964.6
9.16667	964.6
9.18333	964.6
9.20000	964.6
9.21667	964.6
9.23333	964.6
9.25000	964.6
9.26667	964.6
9.28333	964.6
9.30000	964.6
9.31667	964.6
9.33333	964.6
9.35000	964.6
9.36667	964.6
9.38333	964.6
9.40000	964.6
9.41667	964.6
9.43333	964.6
9.45000	964.6
9.46667	964.6
9.48333	964.6
9.50000	964.6
9.51667	964.6
9.53333	964.6
9.55000	964.6
9.56667	964.6
9.58333	964.6
9.60000	964.6
9.61667	964.6
9.63333	964.6
9.65000	964.6
9.66667	964.6
9.68333	964.6
9.70000	964.6
9.71667	964.6
9.73333	964.6
9.75000	964.6
9.76667	964.6
9.78333	964.6
9.80000	964.6
9.81667	964.6
9.83333	964.6
9.85000	964.6
9.86667	964.6
9.88333	964.6
9.90000	964.6
9.91667	964.6
9.93333	964.6
9.95000	964.6
9.96667	964.6
9.98333	964.6
10.00000	964.6

[LC Status Trace(RF A Cell Temp.)]
Interval(msec)	1000
# of Points	601
Start Time(min)	0.000
End Time(min)	10.000
Intensity Units	C
Intensity Multiplier	1
R.Time (min)	Intensity
0.00000	40.00
0.01667	40.00
0.03333	40.00
0.05000	40.00
0.06667	39.98
0.08333	39.96
0.10000	39.98
0.11667	39.98
0.13333	39.99
0.15000	39.99
0.16667	39.97
0.18333	39.96
0.20000	39.97
0.21667	39.96
0.23333	39.96
0.25000	39.93
0.26667	39.99
0.28333	39.99
0.30000	39.97
0.31667	39.95
0.33333	39.97
0.35000	39.97
0.36667	39.95
0.38333	39.93
0.40000	39.93
0.41667	39.93
0.43333	39.97
0.45000	39.95
0.46667	39.93
0.48333	39.95
0.50000	39.93
0.51667	39.97
0.53333	39.97
0.55000	39.96
0.56667	39.97
0.58333	39.95
0.60000	39.95
0.61667	39.97
0.63333	40.00
0.65000	39.99
0.66667	40.00
0.68333	39.99
0.70000	39.97
0.71667	39.99
0.73333	40.00
0.75000	39.99
0.76667	40.00
0.78333	40.02
0.80000	40.00
0.81667	40.00
0.83333	40.00
0.85000	40.00
0.86667	40.00
0.88333	40.00
0.90000	40.00
0.91667	40.00
0.93333	40.00
0.95000	40.00
0.96667	40.00
0.98333	40.00
1.00000	40.00
1.01667	40.00
1.03333	40.03
1.05000	40.02
1.06667	40.00
1.08333	40.00
1.10000	40.00
1.11667	40.00
1.13333	40.00
1.15000	40.00
1.16667	40.06
1.18333	40.08
1.20000	40.05
1.21667	40.00
1.23333	39.99
1.25000	39.98
1.26667	40.06
1.28333	40.00
1.30000	40.00
1.31667	40.00
1.33333	40.00
1.35000	40.00
1.36667	40.02
1.38333	40.08
1.40000	40.08
1.41667	40.02
1.43333	40.02
1.45000	40.02
1.46667	40.02
1.48333	40.03
1.50000	40.02
1.51667	40.00
1.53333	40.00
1.55000	40.00
1.56667	40.00
1.58333	39.93
1.60000	39.93
1.61667	39.98
1.63333	40.00
1.65000	40.00
1.66667	40.00
1.68333	40.02
1.70000	40.00
1.71667	40.00
1.73333	40.06
1.75000	40.05
1.76667	40.02
1.78333	40.00
1.80000	40.00
1.81667	40.00
1.83333	40.00
1.85000	40.02
1.86667	40.03
1.88333	40.05
1.90000	40.00
1.91667	40.00
1.93333	40.00
1.95000	39.99
1.96667	39.96
1.98333	39.97
2.00000	40.00
2.01667	40.00
2.03333	40.05
2.05000	40.05
2.06667	40.03
2.08333	40.00
2.10000	40.00
2.11667	40.03
2.13333	40.03
2.15000	40.03
2.16667	40.03
2.18333	40.00
2.20000	40.00
2.21667	40.00
2.23333	40.00
2.25000	40.02
2.26667	40.00
2.28333	40.00
2.30000	40.00
2.31667	39.99
2.33333	39.97
2.35000	39.95
2.36667	39.99
2.38333	40.00
2.40000	40.00
2.41667	40.00
2.43333	40.02
2.45000	40.03
2.46667	40.00
2.48333	40.00
2.50000	39.99
2.51667	40.03
2.53333	40.00
2.55000	40.02
2.56667	40.00
2.58333	39.99
2.60000	39.98
2.61667	39.95
2.63333	39.93
2.65000	39.98
2.66667	40.00
2.68333	40.00
2.70000	40.00
2.71667	40.00
2.73333	40.00
2.75000	40.00
2.76667	40.03
2.78333	40.00
2.80000	40.00
2.81667	40.00
2.83333	40.00
2.85000	40.00
2.86667	40.00
2.88333	39.98
2.90000	39.97
2.91667	39.96
2.93333	39.99
2.95000	39.99
2.96667	40.00
2.98333	40.03
3.00000	40.05
3.01667	40.00
3.03333	40.00
3.05000	40.00
3.06667	40.00
3.08333	39.99
3.10000	40.00
3.11667	40.00
3.13333	39.96
3.15000	39.98
3.16667	40.02
3.18333	40.00
3.20000	39.99
3.21667	39.98
3.23333	40.00
3.25000	40.00
3.26667	40.00
3.28333	40.00
3.30000	40.03
3.31667	40.05
3.33333	40.03
3.35000	40.00
3.36667	40.00
3.38333	40.00
3.40000	40.00
3.41667	39.93
3.43333	39.95
3.45000	39.98
3.46667	40.00
3.48333	40.06
3.50000	40.06
3.51667	40.00
3.53333	40.00
3.55000	39.99
3.56667	40.02
3.58333	40.09
3.60000	40.06
3.61667	40.00
3.63333	40.00
3.65000	39.99
3.66667	40.02
3.68333	40.00
3.70000	40.00
3.71667	40.00
3.73333	40.00
3.75000	40.05
3.76667	40.02
3.78333	40.00
3.80000	40.00
3.81667	39.98
3.83333	39.95
3.85000	39.96
3.86667	39.96
3.88333	39.97
3.90000	39.95
3.91667	40.00
3.93333	40.00
3.95000	40.03
3.96667	40.00
3.98333	40.02
4.00000	40.02
4.01667	40.00
4.03333	40.00
4.05000	40.00
4.06667	40.03
4.08333	40.03
4.10000	40.00
4.11667	40.00
4.13333	40.02
4.15000	40.00
4.16667	40.02
4.18333	40.00
4.20000	40.00
4.21667	40.02
4.23333	40.00
4.25000	40.00
4.26667	40.02
4.28333	40.05
4.30000	40.02
4.31667	39.99
4.33333	39.97
4.35000	40.00
4.36667	40.00
4.38333	39.99
4.40000	39.98
4.41667	40.00
4.43333	39.93
4.45000	39.93
4.46667	39.96
4.48333	39.98
4.50000	39.95
4.51667	39.93
4.53333	40.00
4.55000	40.00
4.56667	40.03
4.58333	40.00
4.60000	40.00
4.61667	39.99
4.63333	40.00
4.65000	40.03
4.66667	40.05
4.68333	40.02
4.70000	40.02
4.71667	40.00
4.73333	40.00
4.75000	40.00
4.76667	40.00
4.78333	39.99
4.80000	40.00
4.81667	40.08
4.83333	40.07
4.85000	40.02
4.86667	40.02
4.88333	40.00
4.90000	40.00
4.91667	40.02
4.93333	40.00
4.95000	40.00
4.96667	39.99
4.98333	40.02
5.00000	40.05
5.01667	40.00
5.03333	40.03
5.05000	40.05
5.06667	40.05
5.08333	40.02
5.10000	40.02
5.11667	40.00
5.13333	40.00
5.15000	40.02
5.16667	40.00
5.18333	40.02
5.20000	40.02
5.21667	40.00
5.23333	40.00
5.25000	40.00
5.26667	39.99
5.28333	40.03
5.30000	40.00
5.31667	40.00
5.33333	40.02
5.35000	40.00
5.36667	39.99
5.38333	40.00
5.40000	39.98
5.41667	39.93
5.43333	40.00
5.45000	39.99
5.46667	39.99
5.48333	39.98
5.50000	39.93
5.51667	39.98
5.53333	39.98
5.55000	39.96
5.56667	39.98
5.58333	39.97
5.60000	39.93
5.61667	39.98
5.63333	40.00
5.65000	39.96
5.66667	39.96
5.68333	39.98
5.70000	39.93
5.71667	39.93
5.73333	39.97
5.75000	39.99
5.76667	40.00
5.78333	40.00
5.80000	39.95
5.81667	39.97
5.83333	40.00
5.85000	40.00
5.86667	40.00
5.88333	39.97
5.90000	39.93
5.91667	39.98
5.93333	39.98
5.95000	39.98
5.96667	39.96
5.98333	40.00
6.00000	40.00
6.01667	40.00
6.03333	40.02
6.05000	40.07
6.06667	40.08
6.08333	40.02
6.10000	40.00
6.11667	40.02
6.13333	40.02
6.15000	40.00
6.16667	40.00
6.18333	40.00
6.20000	39.99
6.21667	39.99
6.23333	40.00
6.25000	40.00
6.26667	40.00
6.28333	40.00
6.30000	40.00
6.31667	40.00
6.33333	40.03
6.35000	40.02
6.36667	40.03
6.38333	40.00
6.40000	40.00
6.41667	40.00
6.43333	40.02
6.45000	40.00
6.46667	40.02
6.48333	40.02
6.50000	40.00
6.51667	40.00
6.53333	40.00
6.55000	40.02
6.56667	40.00
6.58333	40.03
6.60000	40.00
6.61667	40.00
6.63333	40.00
6.65000	39.99
6.66667	40.00
6.68333	40.00
6.70000	40.00
6.71667	40.00
6.73333	39.99
6.75000	40.00
6.76667	40.05
6.78333	40.03
6.80000	40.00
6.81667	40.00
6.83333	40.02
6.85000	40.00
6.86667	40.00
6.88333	40.05
6.90000	40.00
6.91667	40.02
6.93333	40.02
6.95000	40.02
6.96667	40.00
6.98333	40.02
7.00000	40.00
7.01667	40.00
7.03333	40.05
7.05000	40.06
7.06667	40.08
7.08333	40.00
7.10000	40.00
7.11667	39.98
7.13333	40.00
7.15000	40.03
7.16667	40.00
7.18333	40.00
7.20000	39.99
7.21667	40.00
7.23333	40.02
7.25000	40.03
7.26667	40.05
7.28333	40.06
7.30000	40.06
7.31667	40.00
7.33333	40.00
7.35000	40.00
7.36667	40.06
7.38333	40.02
7.40000	40.02
7.41667	40.05
7.43333	40.06
7.45000	40.00
7.46667	40.00
7.48333	39.99
7.50000	40.02
7.51667	40.00
7.53333	40.00
7.55000	40.00
7.56667	40.00
7.58333	40.02
7.60000	40.03
7.61667	40.03
7.63333	40.00
7.65000	39.98
7.66667	39.99
7.68333	39.99
7.70000	39.96
7.71667	39.95
7.73333	39.93
7.75000	39.97
7.76667	40.00
7.78333	39.95
7.80000	39.93
7.81667	39.97
7.83333	40.00
7.85000	40.02
7.86667	40.03
7.88333	40.00
7.90000	40.00
7.91667	40.00
7.93333	40.02
7.95000	40.03
7.96667	40.02
7.98333	40.00
8.00000	40.00
8.01667	40.00
8.03333	40.03
8.05000	40.03
8.06667	40.00
8.08333	40.00
8.10000	40.03
8.11667	40.00
8.13333	40.00
8.15000	40.00
8.16667	40.00
8.18333	40.05
8.20000	40.05
8.21667	39.99
8.23333	40.00
8.25000	40.00
8.26667	40.00
8.28333	40.00
8.30000	40.00
8.31667	40.00
8.33333	40.02
8.35000	40.02
8.36667	40.00
8.38333	39.99
8.40000	40.02
8.41667	40.00
8.43333	40.00
8.45000	40.03
8.46667	40.00
8.48333	40.02
8.50000	40.00
8.51667	40.00
8.53333	40.00
8.55000	40.03
8.56667	40.02
8.58333	40.00
8.60000	39.99
8.61667	40.00
8.63333	40.00
8.65000	40.00
8.66667	40.00
8.68333	40.00
8.70000	40.00
8.71667	40.00
8.73333	39.98
8.75000	39.96
8.76667	39.97
8.78333	39.97
8.80000	39.97
8.81667	39.93
8.83333	39.93
8.85000	39.93
8.86667	39.93
8.88333	39.95
8.90000	39.98
8.91667	39.98
8.93333	39.96
8.95000	39.95
8.96667	39.93
8.98333	39.95
9.00000	39.96
9.01667	39.93
9.03333	39.98
9.05000	39.98
9.06667	39.98
9.08333	39.99
9.10000	39.93
9.11667	39.93
9.13333	39.93
9.15000	39.93
9.16667	39.95
9.18333	39.95
9.20000	39.93
9.21667	39.95
9.23333	39.95
9.25000	39.97
9.26667	39.99
9.28333	40.00
9.30000	39.97
9.31667	39.98
9.33333	39.98
9.35000	39.99
9.36667	39.99
9.38333	40.03
9.40000	40.02
9.41667	40.02
9.43333	40.00
9.45000	40.00
9.46667	40.00
9.48333	39.98
9.50000	39.99
9.51667	40.05
9.53333	40.06
9.55000	40.00
9.56667	40.00
9.58333	40.00
9.60000	40.06
9.61667	40.03
9.63333	40.00
9.65000	40.00
9.66667	40.00
9.68333	40.00
9.70000	39.96
9.71667	39.98
9.73333	39.97
9.75000	39.97
9.76667	40.00
9.78333	39.99
9.80000	40.00
9.81667	40.05
9.83333	40.00
9.85000	40.00
9.86667	40.00
9.88333	39.99
9.90000	40.02
9.91667	40.02
9.93333	40.00
9.95000	40.02
9.96667	40.02
9.98333	40.00
10.00000	40.00

[Fraction Collection Report]
# of Fractions	0
