[Header]
Application Name	LabSolutions
Version	5.81 SP1
Data File Name	C:\LabSolutions\Data\Shangwen\20170529__Assay2+AMP_004.lcd
Output Date	5/29/2017
Output Time	3:31:48 PM

[File Information]
Type	Data File
Generated	5/29/2017 12:09:00 PM
Generated by	System Administrator
Modified	5/29/2017 12:19:23 PM
Modified by	System Administrator

[Sample Information]
Operator Name	System Administrator
Acquired	5/29/2017 12:09:22 PM
Sample Type	0:Unknown
Level	0
Sample Name	Assay2+AMP
Sample ID	004
ISTD Amount1	1
ISTD Amount2	1
ISTD Amount3	1
ISTD Amount4	1
ISTD Amount5	1
ISTD Amount6	1
ISTD Amount7	1
ISTD Amount8	1
ISTD Amount9	1
ISTD Amount10	1
ISTD Amount11	1
ISTD Amount12	1
ISTD Amount13	1
ISTD Amount14	1
ISTD Amount15	1
ISTD Amount16	1
ISTD Amount17	1
ISTD Amount18	1
ISTD Amount19	1
ISTD Amount20	1
ISTD Amount21	1
ISTD Amount22	1
ISTD Amount23	1
ISTD Amount24	1
ISTD Amount25	1
ISTD Amount26	1
ISTD Amount27	1
ISTD Amount28	1
ISTD Amount29	1
ISTD Amount30	1
ISTD Amount31	1
ISTD Amount32	1
Sample Amount	1
Dilution Factor	1
Vial#	99
Injection Volume	5

[Original Files]
Data File	C:\LabSolutions\Data\Shangwen\20170529__Assay2+AMP_004.lcd
Method File	C:\LabSolutions\Data\Shangwen\20170524_ATPAMP.lcm
Batch File	C:\LabSolutions\Data\Shangwen\20170524_batch2.lcb
Report Format File	c:\LabSolutions\System\DEFAULT.lsr

[File Description]


[Configuration]
Instrument Name	NAIR-HPLC-Instrument1
Instrument #	1
Line #	1
# of Detectors	2
Detector ID	Detector A	AD2
Detector Name	Detector A	ELSD
# of Channels	1	1

[Peak Table(Detector A)]
# of Peaks	11
Peak#	R.Time	I.Time	F.Time	Area	Height	A/H	Conc.	Mark	ID#	Name	k'	Plate #	Plate Ht.	Tailing	Resolution	Sep.Factor	Area Ratio	Height Ratio	Conc. %	Norm Conc.
1	0.859	0.608	1.133	1325	98	13.586	0.000	   			0.000	86	1734.978	1.041	0.000	0.000	0	0	0.000	0.000
2	1.820	1.417	2.408	75523	5424	13.923	0.000	   			1.120	384	391.090	1.066	2.595	0.000	0	0	0.000	0.000
3	3.173	2.875	3.350	13483	1136	11.867	0.000	   			2.696	1486	100.925	0.000	3.861	2.408	0	0	0.000	0.000
4	3.392	3.350	3.467	4049	611	6.631	0.000	 V 			2.950	50	3021.557	0.000	0.194	1.094	0	0	0.000	0.000
5	3.517	3.467	3.675	5996	583	10.294	0.000	 V 			3.097	236	636.640	0.000	0.088	1.050	0	0	0.000	0.000
6	3.818	3.675	4.083	5735741	752932	7.618	0.000	 V 			3.447	5201	28.839	1.607	0.534	1.113	0	0	0.000	0.000
7	4.202	4.083	4.658	3439408	467569	7.356	0.000	 V 			3.894	7601	19.734	1.431	1.895	1.130	0	0	0.000	0.000
8	4.820	4.658	5.267	938706	120343	7.800	0.000	 V 			4.614	8710	17.221	1.119	3.097	1.185	0	0	0.000	0.000
9	5.504	5.267	8.033	14321484	1694497	8.452	0.000	SV 			5.411	9259	16.200	1.303	3.141	1.173	0	0	0.000	0.000
10	6.975	6.733	7.350	4534	259	17.498	0.000	T  			7.125	3310	45.319	1.202	4.124	1.317	0	0	0.000	0.000
11	9.360	9.108	9.725	22834	1806	12.643	0.000	 V 			9.902	12080	12.417	1.074	5.776	1.390	0	0	0.000	0.000

[Peak Table(AD2)]
# of Peaks	0

[Compound Results(Detector A)]
# of IDs	0

[Compound Results(AD2)]
# of IDs	0

[Group Results(Detector A)]
# of Groups	0

[Group Results(AD2)]
# of Groups	0

[LC Chromatogram(Detector A-Ch1)]
Interval(msec)	500
# of Points	1201
Start Time(min)	0.000
End Time(min)	10.000
Intensity Units	mV
Intensity Multiplier	0.001
Wavelength(nm)	260nm
R.Time (min)	Intensity
0.00000	-11
0.00833	-11
0.01667	-2
0.02500	-3
0.03333	-4
0.04167	-4
0.05000	-3
0.05833	-4
0.06667	-4
0.07500	-4
0.08333	-5
0.09167	-6
0.10000	-7
0.10833	-8
0.11667	-8
0.12500	-8
0.13333	-8
0.14167	-9
0.15000	-9
0.15833	-10
0.16667	-10
0.17500	-10
0.18333	-10
0.19167	-10
0.20000	-11
0.20833	-12
0.21667	-12
0.22500	-11
0.23333	-12
0.24167	-12
0.25000	-13
0.25833	-13
0.26667	-14
0.27500	-15
0.28333	-16
0.29167	-17
0.30000	-18
0.30833	-18
0.31667	-17
0.32500	-17
0.33333	-17
0.34167	-17
0.35000	-18
0.35833	-17
0.36667	-18
0.37500	-18
0.38333	-18
0.39167	-17
0.40000	-17
0.40833	-17
0.41667	-18
0.42500	-19
0.43333	-20
0.44167	-21
0.45000	-22
0.45833	-22
0.46667	-22
0.47500	-22
0.48333	-22
0.49167	-23
0.50000	-23
0.50833	-24
0.51667	-24
0.52500	-24
0.53333	-24
0.54167	-24
0.55000	-24
0.55833	-24
0.56667	-24
0.57500	-24
0.58333	-24
0.59167	-24
0.60000	-23
0.60833	-21
0.61667	-20
0.62500	-21
0.63333	-21
0.64167	-20
0.65000	-18
0.65833	-17
0.66667	-15
0.67500	-12
0.68333	-10
0.69167	-7
0.70000	-4
0.70833	-0
0.71667	4
0.72500	8
0.73333	12
0.74167	17
0.75000	21
0.75833	27
0.76667	33
0.77500	38
0.78333	43
0.79167	47
0.80000	52
0.80833	57
0.81667	62
0.82500	66
0.83333	68
0.84167	68
0.85000	68
0.85833	69
0.86667	68
0.87500	68
0.88333	65
0.89167	63
0.90000	59
0.90833	56
0.91667	52
0.92500	47
0.93333	42
0.94167	36
0.95000	31
0.95833	26
0.96667	20
0.97500	13
0.98333	7
0.99167	2
1.00000	-2
1.00833	-6
1.01667	-10
1.02500	-15
1.03333	-19
1.04167	-22
1.05000	-24
1.05833	-27
1.06667	-28
1.07500	-29
1.08333	-30
1.09167	-31
1.10000	-33
1.10833	-34
1.11667	-35
1.12500	-36
1.13333	-36
1.14167	-36
1.15000	-36
1.15833	-37
1.16667	-38
1.17500	-38
1.18333	-39
1.19167	-39
1.20000	-40
1.20833	-40
1.21667	-40
1.22500	-41
1.23333	-42
1.24167	-41
1.25000	-41
1.25833	-40
1.26667	-40
1.27500	-40
1.28333	-41
1.29167	-42
1.30000	-41
1.30833	-41
1.31667	-42
1.32500	-42
1.33333	-42
1.34167	-40
1.35000	-40
1.35833	-41
1.36667	-42
1.37500	-42
1.38333	-42
1.39167	-41
1.40000	-41
1.40833	-41
1.41667	-41
1.42500	-40
1.43333	-40
1.44167	-40
1.45000	-40
1.45833	-38
1.46667	-35
1.47500	-34
1.48333	-32
1.49167	-29
1.50000	-25
1.50833	-21
1.51667	-15
1.52500	-8
1.53333	0
1.54167	11
1.55000	25
1.55833	43
1.56667	64
1.57500	90
1.58333	122
1.59167	163
1.60000	211
1.60833	271
1.61667	342
1.62500	428
1.63333	531
1.64167	653
1.65000	794
1.65833	956
1.66667	1139
1.67500	1344
1.68333	1571
1.69167	1822
1.70000	2094
1.70833	2382
1.71667	2682
1.72500	2993
1.73333	3309
1.74167	3623
1.75000	3930
1.75833	4220
1.76667	4491
1.77500	4735
1.78333	4945
1.79167	5118
1.80000	5250
1.80833	5337
1.81667	5378
1.82500	5373
1.83333	5323
1.84167	5228
1.85000	5094
1.85833	4924
1.86667	4722
1.87500	4494
1.88333	4244
1.89167	3977
1.90000	3700
1.90833	3418
1.91667	3135
1.92500	2855
1.93333	2583
1.94167	2320
1.95000	2070
1.95833	1835
1.96667	1617
1.97500	1417
1.98333	1233
1.99167	1066
2.00000	917
2.00833	784
2.01667	666
2.02500	561
2.03333	470
2.04167	392
2.05000	326
2.05833	268
2.06667	219
2.07500	179
2.08333	144
2.09167	115
2.10000	91
2.10833	70
2.11667	51
2.12500	35
2.13333	22
2.14167	12
2.15000	4
2.15833	-4
2.16667	-10
2.17500	-15
2.18333	-20
2.19167	-23
2.20000	-25
2.20833	-27
2.21667	-29
2.22500	-31
2.23333	-33
2.24167	-34
2.25000	-36
2.25833	-38
2.26667	-39
2.27500	-41
2.28333	-43
2.29167	-44
2.30000	-45
2.30833	-46
2.31667	-47
2.32500	-48
2.33333	-49
2.34167	-49
2.35000	-50
2.35833	-50
2.36667	-50
2.37500	-51
2.38333	-52
2.39167	-53
2.40000	-53
2.40833	-53
2.41667	-53
2.42500	-52
2.43333	-53
2.44167	-54
2.45000	-55
2.45833	-56
2.46667	-57
2.47500	-57
2.48333	-57
2.49167	-57
2.50000	-57
2.50833	-57
2.51667	-57
2.52500	-56
2.53333	-57
2.54167	-57
2.55000	-58
2.55833	-58
2.56667	-58
2.57500	-57
2.58333	-57
2.59167	-57
2.60000	-57
2.60833	-57
2.61667	-57
2.62500	-57
2.63333	-58
2.64167	-58
2.65000	-58
2.65833	-59
2.66667	-59
2.67500	-59
2.68333	-59
2.69167	-60
2.70000	-60
2.70833	-59
2.71667	-59
2.72500	-60
2.73333	-60
2.74167	-60
2.75000	-61
2.75833	-61
2.76667	-62
2.77500	-62
2.78333	-62
2.79167	-62
2.80000	-62
2.80833	-62
2.81667	-62
2.82500	-62
2.83333	-63
2.84167	-62
2.85000	-62
2.85833	-62
2.86667	-62
2.87500	-62
2.88333	-61
2.89167	-59
2.90000	-57
2.90833	-53
2.91667	-46
2.92500	-37
2.93333	-29
2.94167	-20
2.95000	-12
2.95833	-2
2.96667	7
2.97500	16
2.98333	26
2.99167	34
3.00000	43
3.00833	50
3.01667	59
3.02500	68
3.03333	78
3.04167	88
3.05000	100
3.05833	114
3.06667	131
3.07500	153
3.08333	182
3.09167	221
3.10000	278
3.10833	361
3.11667	473
3.12500	606
3.13333	745
3.14167	872
3.15000	974
3.15833	1043
3.16667	1078
3.17500	1085
3.18333	1069
3.19167	1039
3.20000	999
3.20833	954
3.21667	907
3.22500	862
3.23333	819
3.24167	780
3.25000	744
3.25833	709
3.26667	679
3.27500	651
3.28333	628
3.29167	608
3.30000	592
3.30833	579
3.31667	570
3.32500	561
3.33333	555
3.34167	552
3.35000	551
3.35833	553
3.36667	557
3.37500	562
3.38333	565
3.39167	567
3.40000	565
3.40833	559
3.41667	549
3.42500	535
3.43333	519
3.44167	504
3.45000	492
3.45833	484
3.46667	483
3.47500	490
3.48333	502
3.49167	516
3.50000	530
3.50833	539
3.51667	543
3.52500	540
3.53333	529
3.54167	511
3.55000	490
3.55833	468
3.56667	447
3.57500	430
3.58333	417
3.59167	409
3.60000	403
3.60833	399
3.61667	393
3.62500	386
3.63333	376
3.64167	366
3.65000	355
3.65833	346
3.66667	338
3.67500	334
3.68333	344
3.69167	415
3.70000	707
3.70833	1714
3.71667	4688
3.72500	12222
3.73333	28718
3.74167	60103
3.75000	112280
3.75833	188464
3.76667	286583
3.77500	398394
3.78333	511186
3.79167	611339
3.80000	687994
3.80833	735324
3.81667	752903
3.82500	744617
3.83333	716849
3.84167	676531
3.85000	629471
3.85833	579368
3.86667	527811
3.87500	475139
3.88333	421569
3.89167	367936
3.90000	315744
3.90833	266747
3.91667	222431
3.92500	183715
3.93333	150892
3.94167	123745
3.95000	101722
3.95833	84106
3.96667	70145
3.97500	59125
3.98333	50424
3.99167	43524
4.00000	38013
4.00833	33564
4.01667	29931
4.02500	26927
4.03333	24413
4.04167	22285
4.05000	20469
4.05833	18925
4.06667	17648
4.07500	16707
4.08333	16306
4.09167	16921
4.10000	19476
4.10833	25546
4.11667	37423
4.12500	57875
4.13333	89457
4.14167	133463
4.15000	188922
4.15833	252131
4.16667	317073
4.17500	376647
4.18333	424262
4.19167	455236
4.20000	467553
4.20833	461869
4.21667	440912
4.22500	408611
4.23333	369207
4.24167	326586
4.25000	283876
4.25833	243316
4.26667	206309
4.27500	173559
4.28333	145255
4.29167	121244
4.30000	101162
4.30833	84549
4.31667	70915
4.32500	59788
4.33333	50735
4.34167	43377
4.35000	37390
4.35833	32507
4.36667	28507
4.37500	25211
4.38333	22479
4.39167	20196
4.40000	18275
4.40833	16646
4.41667	15252
4.42500	14050
4.43333	13005
4.44167	12092
4.45000	11287
4.45833	10572
4.46667	9935
4.47500	9365
4.48333	8849
4.49167	8383
4.50000	7961
4.50833	7576
4.51667	7222
4.52500	6895
4.53333	6596
4.54167	6320
4.55000	6064
4.55833	5826
4.56667	5604
4.57500	5397
4.58333	5201
4.59167	5019
4.60000	4849
4.60833	4691
4.61667	4546
4.62500	4413
4.63333	4294
4.64167	4197
4.65000	4129
4.65833	4105
4.66667	4150
4.67500	4306
4.68333	4646
4.69167	5278
4.70000	6358
4.70833	8099
4.71667	10771
4.72500	14682
4.73333	20148
4.74167	27429
4.75000	36665
4.75833	47781
4.76667	60426
4.77500	73940
4.78333	87400
4.79167	99732
4.80000	109869
4.80833	116928
4.81667	120349
4.82500	119968
4.83333	116017
4.84167	109049
4.85000	99827
4.85833	89192
4.86667	77952
4.87500	66796
4.88333	56248
4.89167	46658
4.90000	38217
4.90833	30985
4.91667	24930
4.92500	19956
4.93333	15936
4.94167	12733
4.95000	10213
4.95833	8250
4.96667	6733
4.97500	5568
4.98333	4677
4.99167	3998
5.00000	3479
5.00833	3082
5.01667	2776
5.02500	2536
5.03333	2346
5.04167	2193
5.05000	2068
5.05833	1964
5.06667	1876
5.07500	1800
5.08333	1733
5.09167	1675
5.10000	1623
5.10833	1577
5.11667	1536
5.12500	1500
5.13333	1467
5.14167	1435
5.15000	1405
5.15833	1377
5.16667	1351
5.17500	1326
5.18333	1302
5.19167	1279
5.20000	1257
5.20833	1237
5.21667	1217
5.22500	1198
5.23333	1180
5.24167	1162
5.25000	1147
5.25833	1136
5.26667	1131
5.27500	1134
5.28333	1151
5.29167	1188
5.30000	1258
5.30833	1377
5.31667	1579
5.32500	1918
5.33333	2485
5.34167	3450
5.35000	5109
5.35833	8005
5.36667	13082
5.37500	21945
5.38333	37175
5.39167	62628
5.40000	103536
5.40833	166097
5.41667	256324
5.42500	378221
5.43333	531803
5.44167	711831
5.45000	907912
5.45833	1106118
5.46667	1291521
5.47500	1450809
5.48333	1574126
5.49167	1655863
5.50000	1694527
5.50833	1692010
5.51667	1652655
5.52500	1582328
5.53333	1487646
5.54167	1375357
5.55000	1251892
5.55833	1123049
5.56667	993812
5.57500	868244
5.58333	749476
5.59167	639740
5.60000	540434
5.60833	452229
5.61667	375194
5.62500	308934
5.63333	252724
5.64167	205627
5.65000	166599
5.65833	134574
5.66667	108524
5.67500	87493
5.68333	70623
5.69167	57163
5.70000	46471
5.70833	38002
5.71667	31309
5.72500	26022
5.73333	21841
5.74167	18528
5.75000	15894
5.75833	13788
5.76667	12092
5.77500	10718
5.78333	9593
5.79167	8663
5.80000	7886
5.80833	7231
5.81667	6672
5.82500	6188
5.83333	5766
5.84167	5396
5.85000	5069
5.85833	4777
5.86667	4517
5.87500	4284
5.88333	4075
5.89167	3887
5.90000	3720
5.90833	3570
5.91667	3437
5.92500	3320
5.93333	3217
5.94167	3126
5.95000	3042
5.95833	2962
5.96667	2886
5.97500	2811
5.98333	2736
5.99167	2660
6.00000	2581
6.00833	2500
6.01667	2417
6.02500	2334
6.03333	2252
6.04167	2172
6.05000	2094
6.05833	2020
6.06667	1951
6.07500	1884
6.08333	1822
6.09167	1763
6.10000	1709
6.10833	1658
6.11667	1612
6.12500	1569
6.13333	1531
6.14167	1494
6.15000	1458
6.15833	1424
6.16667	1391
6.17500	1360
6.18333	1331
6.19167	1303
6.20000	1276
6.20833	1249
6.21667	1223
6.22500	1198
6.23333	1175
6.24167	1152
6.25000	1130
6.25833	1109
6.26667	1088
6.27500	1069
6.28333	1050
6.29167	1031
6.30000	1013
6.30833	997
6.31667	981
6.32500	965
6.33333	949
6.34167	934
6.35000	919
6.35833	905
6.36667	892
6.37500	880
6.38333	867
6.39167	855
6.40000	844
6.40833	833
6.41667	822
6.42500	812
6.43333	803
6.44167	797
6.45000	790
6.45833	784
6.46667	778
6.47500	772
6.48333	768
6.49167	765
6.50000	765
6.50833	765
6.51667	765
6.52500	764
6.53333	763
6.54167	760
6.55000	756
6.55833	749
6.56667	740
6.57500	730
6.58333	718
6.59167	706
6.60000	693
6.60833	681
6.61667	668
6.62500	655
6.63333	642
6.64167	630
6.65000	619
6.65833	609
6.66667	601
6.67500	594
6.68333	587
6.69167	582
6.70000	578
6.70833	574
6.71667	570
6.72500	567
6.73333	567
6.74167	568
6.75000	568
6.75833	569
6.76667	572
6.77500	575
6.78333	578
6.79167	581
6.80000	584
6.80833	588
6.81667	594
6.82500	600
6.83333	607
6.84167	613
6.85000	619
6.85833	627
6.86667	633
6.87500	640
6.88333	647
6.89167	653
6.90000	660
6.90833	667
6.91667	674
6.92500	681
6.93333	687
6.94167	692
6.95000	696
6.95833	700
6.96667	702
6.97500	703
6.98333	703
6.99167	702
7.00000	699
7.00833	695
7.01667	689
7.02500	682
7.03333	674
7.04167	664
7.05000	653
7.05833	642
7.06667	629
7.07500	614
7.08333	601
7.09167	588
7.10000	573
7.10833	559
7.11667	545
7.12500	531
7.13333	515
7.14167	499
7.15000	485
7.15833	470
7.16667	455
7.17500	441
7.18333	428
7.19167	415
7.20000	402
7.20833	390
7.21667	379
7.22500	368
7.23333	358
7.24167	349
7.25000	338
7.25833	328
7.26667	319
7.27500	311
7.28333	302
7.29167	294
7.30000	288
7.30833	281
7.31667	275
7.32500	269
7.33333	263
7.34167	259
7.35000	255
7.35833	251
7.36667	247
7.37500	243
7.38333	240
7.39167	236
7.40000	233
7.40833	230
7.41667	227
7.42500	223
7.43333	219
7.44167	215
7.45000	212
7.45833	208
7.46667	206
7.47500	204
7.48333	201
7.49167	199
7.50000	197
7.50833	195
7.51667	194
7.52500	192
7.53333	191
7.54167	190
7.55000	188
7.55833	186
7.56667	184
7.57500	181
7.58333	179
7.59167	179
7.60000	178
7.60833	176
7.61667	174
7.62500	171
7.63333	170
7.64167	168
7.65000	168
7.65833	167
7.66667	166
7.67500	165
7.68333	163
7.69167	162
7.70000	161
7.70833	159
7.71667	157
7.72500	156
7.73333	155
7.74167	155
7.75000	154
7.75833	153
7.76667	151
7.77500	149
7.78333	148
7.79167	146
7.80000	146
7.80833	146
7.81667	145
7.82500	143
7.83333	140
7.84167	138
7.85000	138
7.85833	138
7.86667	137
7.87500	137
7.88333	136
7.89167	135
7.90000	134
7.90833	132
7.91667	131
7.92500	130
7.93333	129
7.94167	128
7.95000	128
7.95833	126
7.96667	124
7.97500	124
7.98333	123
7.99167	123
8.00000	122
8.00833	120
8.01667	120
8.02500	119
8.03333	119
8.04167	119
8.05000	119
8.05833	120
8.06667	119
8.07500	118
8.08333	117
8.09167	116
8.10000	116
8.10833	116
8.11667	116
8.12500	115
8.13333	115
8.14167	116
8.15000	117
8.15833	116
8.16667	116
8.17500	117
8.18333	118
8.19167	118
8.20000	117
8.20833	116
8.21667	115
8.22500	115
8.23333	115
8.24167	116
8.25000	116
8.25833	115
8.26667	115
8.27500	115
8.28333	114
8.29167	113
8.30000	113
8.30833	113
8.31667	111
8.32500	110
8.33333	108
8.34167	106
8.35000	104
8.35833	100
8.36667	98
8.37500	96
8.38333	95
8.39167	94
8.40000	92
8.40833	92
8.41667	91
8.42500	90
8.43333	88
8.44167	86
8.45000	85
8.45833	85
8.46667	84
8.47500	83
8.48333	82
8.49167	81
8.50000	81
8.50833	81
8.51667	81
8.52500	80
8.53333	79
8.54167	78
8.55000	77
8.55833	76
8.56667	75
8.57500	73
8.58333	72
8.59167	71
8.60000	72
8.60833	72
8.61667	70
8.62500	69
8.63333	68
8.64167	67
8.65000	65
8.65833	64
8.66667	62
8.67500	62
8.68333	62
8.69167	61
8.70000	59
8.70833	58
8.71667	58
8.72500	59
8.73333	58
8.74167	58
8.75000	58
8.75833	58
8.76667	58
8.77500	57
8.78333	57
8.79167	56
8.80000	55
8.80833	54
8.81667	54
8.82500	54
8.83333	55
8.84167	55
8.85000	56
8.85833	56
8.86667	58
8.87500	59
8.88333	61
8.89167	63
8.90000	65
8.90833	67
8.91667	68
8.92500	69
8.93333	71
8.94167	73
8.95000	75
8.95833	77
8.96667	78
8.97500	78
8.98333	78
8.99167	80
9.00000	80
9.00833	79
9.01667	77
9.02500	76
9.03333	74
9.04167	72
9.05000	71
9.05833	70
9.06667	68
9.07500	66
9.08333	65
9.09167	64
9.10000	63
9.10833	65
9.11667	68
9.12500	73
9.13333	80
9.14167	90
9.15000	102
9.15833	118
9.16667	137
9.17500	163
9.18333	195
9.19167	234
9.20000	280
9.20833	335
9.21667	399
9.22500	471
9.23333	552
9.24167	642
9.25000	740
9.25833	845
9.26667	956
9.27500	1070
9.28333	1185
9.29167	1298
9.30000	1406
9.30833	1506
9.31667	1597
9.32500	1677
9.33333	1744
9.34167	1793
9.35000	1825
9.35833	1838
9.36667	1832
9.37500	1808
9.38333	1768
9.39167	1712
9.40000	1644
9.40833	1565
9.41667	1476
9.42500	1380
9.43333	1279
9.44167	1175
9.45000	1071
9.45833	968
9.46667	870
9.47500	776
9.48333	688
9.49167	607
9.50000	532
9.50833	464
9.51667	403
9.52500	350
9.53333	302
9.54167	260
9.55000	222
9.55833	188
9.56667	160
9.57500	136
9.58333	116
9.59167	99
9.60000	84
9.60833	73
9.61667	64
9.62500	55
9.63333	47
9.64167	41
9.65000	35
9.65833	30
9.66667	27
9.67500	25
9.68333	23
9.69167	21
9.70000	19
9.70833	18
9.71667	17
9.72500	17
9.73333	17
9.74167	18
9.75000	20
9.75833	22
9.76667	24
9.77500	26
9.78333	28
9.79167	31
9.80000	36
9.80833	41
9.81667	45
9.82500	50
9.83333	54
9.84167	57
9.85000	61
9.85833	64
9.86667	68
9.87500	70
9.88333	73
9.89167	75
9.90000	76
9.90833	76
9.91667	75
9.92500	73
9.93333	71
9.94167	68
9.95000	65
9.95833	61
9.96667	56
9.97500	51
9.98333	47
9.99167	42
10.00000	38

[LC Status Trace(Pump A Pressure)]
Interval(msec)	1000
# of Points	601
Start Time(min)	0.000
End Time(min)	10.000
Intensity Units	psi
Intensity Multiplier	14.2233
R.Time (min)	Intensity
0.00000	104.6
0.01667	104.6
0.03333	104.6
0.05000	114.4
0.06667	121.5
0.08333	124.4
0.10000	131.2
0.11667	133.1
0.13333	134.8
0.15000	137.1
0.16667	139.3
0.18333	140.0
0.20000	141.9
0.21667	142.4
0.23333	142.8
0.25000	143.6
0.26667	144.2
0.28333	144.4
0.30000	144.8
0.31667	145.3
0.33333	145.3
0.35000	145.5
0.36667	145.8
0.38333	145.8
0.40000	146.1
0.41667	146.2
0.43333	146.1
0.45000	146.1
0.46667	146.2
0.48333	146.3
0.50000	146.2
0.51667	146.1
0.53333	146.3
0.55000	146.3
0.56667	146.5
0.58333	146.3
0.60000	146.2
0.61667	146.3
0.63333	146.3
0.65000	146.2
0.66667	146.3
0.68333	146.2
0.70000	146.2
0.71667	146.5
0.73333	146.5
0.75000	146.6
0.76667	146.3
0.78333	146.3
0.80000	146.3
0.81667	146.5
0.83333	146.5
0.85000	146.3
0.86667	146.3
0.88333	146.3
0.90000	146.2
0.91667	146.3
0.93333	146.3
0.95000	146.3
0.96667	146.3
0.98333	146.5
1.00000	146.5
1.01667	146.3
1.03333	146.5
1.05000	146.3
1.06667	146.3
1.08333	146.2
1.10000	146.3
1.11667	146.2
1.13333	146.3
1.15000	146.3
1.16667	146.5
1.18333	146.3
1.20000	146.3
1.21667	146.5
1.23333	146.5
1.25000	146.5
1.26667	146.5
1.28333	146.3
1.30000	146.5
1.31667	146.5
1.33333	146.5
1.35000	146.3
1.36667	146.6
1.38333	146.5
1.40000	146.5
1.41667	146.5
1.43333	146.6
1.45000	146.5
1.46667	146.6
1.48333	146.5
1.50000	146.5
1.51667	146.6
1.53333	146.5
1.55000	146.5
1.56667	146.5
1.58333	146.6
1.60000	146.3
1.61667	146.3
1.63333	146.5
1.65000	146.5
1.66667	146.6
1.68333	146.5
1.70000	146.6
1.71667	146.5
1.73333	146.6
1.75000	146.5
1.76667	146.6
1.78333	146.5
1.80000	146.5
1.81667	146.5
1.83333	146.5
1.85000	146.6
1.86667	146.3
1.88333	146.3
1.90000	146.5
1.91667	146.7
1.93333	146.6
1.95000	146.6
1.96667	146.6
1.98333	146.6
2.00000	146.6
2.01667	146.6
2.03333	146.5
2.05000	146.6
2.06667	146.5
2.08333	146.7
2.10000	146.5
2.11667	146.5
2.13333	146.6
2.15000	146.7
2.16667	146.6
2.18333	146.6
2.20000	146.6
2.21667	146.6
2.23333	146.7
2.25000	146.6
2.26667	146.6
2.28333	146.5
2.30000	146.6
2.31667	146.6
2.33333	146.6
2.35000	146.7
2.36667	146.6
2.38333	146.6
2.40000	146.7
2.41667	146.6
2.43333	146.7
2.45000	146.7
2.46667	146.7
2.48333	146.7
2.50000	146.7
2.51667	146.7
2.53333	146.7
2.55000	146.7
2.56667	146.9
2.58333	146.7
2.60000	146.6
2.61667	146.6
2.63333	146.7
2.65000	146.7
2.66667	146.7
2.68333	146.7
2.70000	146.9
2.71667	146.6
2.73333	146.7
2.75000	146.7
2.76667	146.7
2.78333	146.6
2.80000	146.9
2.81667	146.7
2.83333	146.7
2.85000	146.7
2.86667	146.7
2.88333	146.7
2.90000	146.7
2.91667	146.9
2.93333	146.9
2.95000	146.9
2.96667	146.7
2.98333	146.7
3.00000	146.9
3.01667	146.9
3.03333	146.6
3.05000	146.7
3.06667	146.7
3.08333	146.7
3.10000	146.7
3.11667	146.7
3.13333	146.7
3.15000	146.9
3.16667	146.7
3.18333	146.7
3.20000	146.7
3.21667	146.7
3.23333	146.6
3.25000	146.7
3.26667	146.7
3.28333	146.7
3.30000	146.6
3.31667	146.7
3.33333	146.7
3.35000	146.7
3.36667	146.7
3.38333	146.7
3.40000	146.7
3.41667	146.7
3.43333	146.7
3.45000	146.7
3.46667	146.9
3.48333	147.0
3.50000	146.7
3.51667	146.7
3.53333	147.0
3.55000	146.9
3.56667	146.9
3.58333	146.7
3.60000	146.7
3.61667	146.7
3.63333	146.9
3.65000	146.7
3.66667	146.7
3.68333	146.6
3.70000	146.7
3.71667	146.9
3.73333	146.7
3.75000	146.7
3.76667	146.7
3.78333	146.7
3.80000	146.7
3.81667	146.9
3.83333	146.7
3.85000	146.9
3.86667	146.7
3.88333	146.7
3.90000	146.7
3.91667	146.9
3.93333	146.9
3.95000	146.9
3.96667	146.9
3.98333	146.9
4.00000	146.7
4.01667	146.9
4.03333	146.9
4.05000	146.7
4.06667	146.9
4.08333	146.7
4.10000	146.9
4.11667	146.9
4.13333	146.9
4.15000	146.7
4.16667	146.7
4.18333	146.7
4.20000	146.7
4.21667	146.7
4.23333	146.9
4.25000	146.7
4.26667	146.7
4.28333	147.0
4.30000	146.9
4.31667	146.9
4.33333	146.9
4.35000	146.7
4.36667	146.9
4.38333	146.9
4.40000	146.9
4.41667	146.7
4.43333	146.9
4.45000	146.9
4.46667	146.9
4.48333	146.9
4.50000	146.9
4.51667	147.0
4.53333	146.7
4.55000	146.9
4.56667	146.9
4.58333	146.9
4.60000	146.9
4.61667	147.0
4.63333	146.9
4.65000	146.9
4.66667	147.0
4.68333	146.9
4.70000	147.0
4.71667	146.9
4.73333	146.9
4.75000	146.9
4.76667	146.9
4.78333	146.9
4.80000	147.1
4.81667	147.0
4.83333	147.0
4.85000	146.9
4.86667	147.0
4.88333	147.0
4.90000	146.9
4.91667	146.9
4.93333	146.9
4.95000	147.0
4.96667	147.0
4.98333	146.9
5.00000	147.0
5.01667	147.0
5.03333	147.0
5.05000	146.9
5.06667	147.0
5.08333	147.0
5.10000	146.9
5.11667	146.9
5.13333	147.0
5.15000	146.9
5.16667	146.9
5.18333	146.9
5.20000	147.0
5.21667	146.9
5.23333	147.0
5.25000	147.0
5.26667	147.1
5.28333	147.0
5.30000	147.0
5.31667	147.0
5.33333	146.9
5.35000	147.0
5.36667	147.0
5.38333	147.0
5.40000	146.9
5.41667	147.0
5.43333	146.9
5.45000	147.0
5.46667	146.9
5.48333	147.0
5.50000	147.0
5.51667	147.0
5.53333	147.0
5.55000	147.0
5.56667	147.1
5.58333	147.0
5.60000	147.0
5.61667	147.1
5.63333	147.0
5.65000	147.0
5.66667	147.0
5.68333	147.1
5.70000	147.1
5.71667	147.0
5.73333	146.9
5.75000	147.1
5.76667	147.1
5.78333	147.0
5.80000	147.0
5.81667	147.0
5.83333	146.9
5.85000	147.0
5.86667	147.0
5.88333	147.0
5.90000	147.0
5.91667	147.0
5.93333	147.1
5.95000	147.0
5.96667	147.0
5.98333	147.0
6.00000	147.0
6.01667	147.0
6.03333	147.0
6.05000	147.1
6.06667	147.0
6.08333	147.1
6.10000	147.1
6.11667	147.0
6.13333	147.0
6.15000	147.0
6.16667	147.1
6.18333	147.1
6.20000	147.0
6.21667	147.0
6.23333	147.0
6.25000	147.0
6.26667	147.1
6.28333	147.0
6.30000	147.1
6.31667	147.1
6.33333	147.0
6.35000	147.0
6.36667	147.1
6.38333	147.0
6.40000	147.1
6.41667	147.1
6.43333	147.0
6.45000	147.0
6.46667	147.1
6.48333	147.1
6.50000	147.1
6.51667	147.1
6.53333	147.1
6.55000	147.1
6.56667	147.1
6.58333	147.1
6.60000	147.2
6.61667	147.1
6.63333	147.1
6.65000	147.1
6.66667	147.2
6.68333	147.2
6.70000	147.2
6.71667	147.1
6.73333	147.2
6.75000	147.2
6.76667	147.2
6.78333	147.2
6.80000	147.1
6.81667	147.1
6.83333	147.2
6.85000	147.2
6.86667	147.1
6.88333	147.2
6.90000	147.1
6.91667	147.0
6.93333	147.2
6.95000	147.0
6.96667	147.2
6.98333	147.2
7.00000	147.2
7.01667	147.2
7.03333	147.1
7.05000	147.1
7.06667	147.1
7.08333	147.2
7.10000	147.2
7.11667	147.1
7.13333	147.1
7.15000	147.1
7.16667	147.4
7.18333	147.1
7.20000	147.1
7.21667	147.4
7.23333	147.4
7.25000	147.2
7.26667	147.2
7.28333	147.2
7.30000	147.2
7.31667	147.5
7.33333	147.4
7.35000	147.4
7.36667	147.4
7.38333	147.2
7.40000	147.2
7.41667	147.4
7.43333	147.1
7.45000	147.2
7.46667	147.2
7.48333	147.4
7.50000	147.2
7.51667	147.2
7.53333	147.2
7.55000	147.4
7.56667	147.2
7.58333	147.2
7.60000	147.2
7.61667	147.4
7.63333	147.4
7.65000	147.2
7.66667	147.4
7.68333	147.2
7.70000	147.4
7.71667	147.2
7.73333	147.2
7.75000	147.4
7.76667	147.4
7.78333	147.2
7.80000	147.4
7.81667	147.5
7.83333	147.4
7.85000	147.2
7.86667	147.4
7.88333	147.4
7.90000	147.2
7.91667	147.4
7.93333	147.2
7.95000	147.4
7.96667	147.2
7.98333	147.4
8.00000	147.2
8.01667	147.4
8.03333	147.4
8.05000	147.2
8.06667	147.2
8.08333	147.4
8.10000	147.4
8.11667	147.2
8.13333	147.2
8.15000	147.2
8.16667	147.2
8.18333	147.2
8.20000	147.2
8.21667	147.1
8.23333	147.4
8.25000	147.2
8.26667	147.2
8.28333	147.2
8.30000	147.2
8.31667	147.1
8.33333	147.2
8.35000	147.2
8.36667	147.1
8.38333	147.2
8.40000	147.2
8.41667	147.2
8.43333	147.1
8.45000	147.1
8.46667	147.1
8.48333	147.2
8.50000	147.1
8.51667	147.1
8.53333	147.2
8.55000	147.1
8.56667	147.1
8.58333	147.1
8.60000	147.1
8.61667	147.1
8.63333	147.1
8.65000	147.1
8.66667	147.1
8.68333	147.1
8.70000	147.1
8.71667	147.1
8.73333	147.1
8.75000	147.0
8.76667	147.2
8.78333	147.1
8.80000	147.0
8.81667	147.0
8.83333	147.1
8.85000	147.1
8.86667	147.1
8.88333	147.1
8.90000	147.1
8.91667	147.2
8.93333	147.1
8.95000	147.2
8.96667	147.1
8.98333	147.1
9.00000	147.0
9.01667	147.1
9.03333	147.1
9.05000	147.1
9.06667	147.1
9.08333	147.0
9.10000	147.0
9.11667	147.1
9.13333	147.0
9.15000	147.1
9.16667	147.0
9.18333	147.0
9.20000	147.1
9.21667	147.0
9.23333	147.0
9.25000	147.1
9.26667	147.0
9.28333	147.0
9.30000	147.1
9.31667	147.0
9.33333	147.1
9.35000	147.1
9.36667	147.1
9.38333	147.1
9.40000	147.0
9.41667	147.0
9.43333	147.1
9.45000	147.1
9.46667	147.1
9.48333	147.1
9.50000	147.0
9.51667	147.1
9.53333	147.0
9.55000	147.1
9.56667	147.0
9.58333	147.0
9.60000	147.1
9.61667	147.0
9.63333	147.1
9.65000	146.9
9.66667	147.0
9.68333	147.0
9.70000	147.0
9.71667	146.9
9.73333	147.1
9.75000	147.0
9.76667	147.0
9.78333	147.0
9.80000	147.0
9.81667	147.0
9.83333	147.0
9.85000	147.1
9.86667	147.1
9.88333	147.1
9.90000	146.9
9.91667	147.0
9.93333	146.9
9.95000	147.0
9.96667	146.9
9.98333	146.9
10.00000	146.9

[LC Status Trace(Pump A Degasser Pressure)]
Interval(msec)	1000
# of Points	601
Start Time(min)	0.000
End Time(min)	10.000
Intensity Units	psi
Intensity Multiplier	14.2233
R.Time (min)	Intensity
0.00000	964.6
0.01667	964.6
0.03333	964.6
0.05000	964.6
0.06667	964.6
0.08333	964.6
0.10000	964.6
0.11667	964.6
0.13333	964.6
0.15000	964.6
0.16667	964.6
0.18333	964.6
0.20000	964.6
0.21667	964.6
0.23333	964.6
0.25000	964.6
0.26667	964.6
0.28333	964.6
0.30000	964.6
0.31667	964.6
0.33333	964.6
0.35000	964.6
0.36667	964.6
0.38333	964.6
0.40000	964.6
0.41667	964.6
0.43333	964.6
0.45000	964.6
0.46667	964.6
0.48333	964.6
0.50000	964.6
0.51667	964.6
0.53333	964.6
0.55000	964.6
0.56667	964.6
0.58333	964.6
0.60000	964.6
0.61667	964.6
0.63333	964.6
0.65000	964.6
0.66667	964.6
0.68333	964.6
0.70000	964.6
0.71667	964.6
0.73333	964.6
0.75000	964.6
0.76667	964.6
0.78333	964.6
0.80000	964.6
0.81667	964.6
0.83333	964.6
0.85000	964.6
0.86667	964.6
0.88333	964.6
0.90000	964.6
0.91667	964.6
0.93333	964.6
0.95000	964.6
0.96667	964.6
0.98333	964.6
1.00000	964.6
1.01667	964.6
1.03333	964.6
1.05000	964.6
1.06667	964.6
1.08333	964.6
1.10000	964.6
1.11667	964.6
1.13333	964.6
1.15000	964.6
1.16667	964.6
1.18333	964.6
1.20000	964.6
1.21667	964.6
1.23333	964.6
1.25000	964.6
1.26667	964.6
1.28333	964.6
1.30000	964.6
1.31667	964.6
1.33333	964.6
1.35000	964.6
1.36667	964.6
1.38333	964.6
1.40000	964.6
1.41667	964.6
1.43333	964.6
1.45000	964.6
1.46667	964.6
1.48333	964.6
1.50000	964.6
1.51667	964.6
1.53333	964.6
1.55000	964.6
1.56667	964.6
1.58333	964.6
1.60000	964.6
1.61667	964.6
1.63333	964.6
1.65000	964.6
1.66667	964.6
1.68333	964.6
1.70000	964.6
1.71667	964.6
1.73333	964.6
1.75000	964.6
1.76667	964.6
1.78333	964.6
1.80000	964.6
1.81667	964.6
1.83333	964.6
1.85000	964.6
1.86667	964.6
1.88333	964.6
1.90000	964.6
1.91667	964.6
1.93333	964.6
1.95000	964.6
1.96667	964.6
1.98333	964.6
2.00000	964.6
2.01667	964.6
2.03333	964.6
2.05000	964.6
2.06667	964.6
2.08333	964.6
2.10000	964.6
2.11667	964.6
2.13333	964.6
2.15000	964.6
2.16667	964.6
2.18333	964.6
2.20000	964.6
2.21667	964.6
2.23333	964.6
2.25000	964.6
2.26667	964.6
2.28333	964.6
2.30000	964.6
2.31667	964.6
2.33333	964.6
2.35000	964.6
2.36667	964.6
2.38333	964.6
2.40000	964.6
2.41667	964.6
2.43333	964.6
2.45000	964.6
2.46667	964.6
2.48333	964.6
2.50000	964.6
2.51667	964.6
2.53333	964.6
2.55000	965.6
2.56667	965.6
2.58333	965.6
2.60000	965.6
2.61667	965.6
2.63333	965.6
2.65000	965.6
2.66667	965.6
2.68333	965.6
2.70000	965.6
2.71667	965.6
2.73333	965.6
2.75000	965.6
2.76667	965.6
2.78333	965.6
2.80000	965.6
2.81667	965.6
2.83333	965.6
2.85000	965.6
2.86667	965.6
2.88333	965.6
2.90000	965.6
2.91667	965.6
2.93333	965.6
2.95000	965.6
2.96667	965.6
2.98333	965.6
3.00000	965.6
3.01667	965.6
3.03333	965.6
3.05000	965.6
3.06667	965.6
3.08333	965.6
3.10000	965.6
3.11667	965.6
3.13333	965.6
3.15000	965.6
3.16667	965.6
3.18333	965.6
3.20000	965.6
3.21667	965.6
3.23333	965.6
3.25000	965.6
3.26667	965.6
3.28333	965.6
3.30000	964.6
3.31667	964.6
3.33333	964.6
3.35000	964.6
3.36667	964.6
3.38333	964.6
3.40000	964.6
3.41667	964.6
3.43333	964.6
3.45000	964.6
3.46667	964.6
3.48333	964.6
3.50000	964.6
3.51667	964.6
3.53333	964.6
3.55000	964.6
3.56667	964.6
3.58333	964.6
3.60000	964.6
3.61667	964.6
3.63333	964.6
3.65000	964.6
3.66667	964.6
3.68333	964.6
3.70000	964.6
3.71667	964.6
3.73333	964.6
3.75000	964.6
3.76667	964.6
3.78333	964.6
3.80000	964.6
3.81667	964.6
3.83333	964.6
3.85000	964.6
3.86667	964.6
3.88333	964.6
3.90000	964.6
3.91667	964.6
3.93333	964.6
3.95000	964.6
3.96667	964.6
3.98333	964.6
4.00000	964.6
4.01667	964.6
4.03333	964.6
4.05000	964.6
4.06667	964.6
4.08333	964.6
4.10000	964.6
4.11667	964.6
4.13333	964.6
4.15000	964.6
4.16667	964.6
4.18333	964.6
4.20000	964.6
4.21667	964.6
4.23333	964.6
4.25000	964.6
4.26667	964.6
4.28333	964.6
4.30000	964.6
4.31667	964.6
4.33333	964.6
4.35000	964.6
4.36667	964.6
4.38333	964.6
4.40000	964.6
4.41667	964.6
4.43333	964.6
4.45000	964.6
4.46667	964.6
4.48333	964.6
4.50000	964.6
4.51667	964.6
4.53333	964.6
4.55000	964.6
4.56667	964.6
4.58333	964.6
4.60000	964.6
4.61667	964.6
4.63333	964.6
4.65000	964.6
4.66667	964.6
4.68333	964.6
4.70000	964.6
4.71667	964.6
4.73333	964.6
4.75000	964.6
4.76667	964.6
4.78333	964.6
4.80000	964.6
4.81667	964.6
4.83333	964.6
4.85000	964.6
4.86667	964.6
4.88333	964.6
4.90000	964.6
4.91667	964.6
4.93333	964.6
4.95000	964.6
4.96667	964.6
4.98333	964.6
5.00000	964.6
5.01667	964.6
5.03333	964.6
5.05000	964.6
5.06667	964.6
5.08333	964.6
5.10000	964.6
5.11667	964.6
5.13333	964.6
5.15000	964.6
5.16667	964.6
5.18333	964.6
5.20000	964.6
5.21667	964.6
5.23333	964.6
5.25000	964.6
5.26667	964.6
5.28333	964.6
5.30000	964.6
5.31667	964.6
5.33333	964.6
5.35000	964.6
5.36667	964.6
5.38333	964.6
5.40000	964.6
5.41667	964.6
5.43333	964.6
5.45000	964.6
5.46667	964.6
5.48333	964.6
5.50000	964.6
5.51667	964.6
5.53333	964.6
5.55000	964.6
5.56667	964.6
5.58333	964.6
5.60000	964.6
5.61667	964.6
5.63333	964.6
5.65000	964.6
5.66667	964.6
5.68333	964.6
5.70000	964.6
5.71667	964.6
5.73333	964.6
5.75000	964.6
5.76667	964.6
5.78333	964.6
5.80000	964.6
5.81667	964.6
5.83333	964.6
5.85000	964.6
5.86667	964.6
5.88333	964.6
5.90000	964.6
5.91667	964.6
5.93333	964.6
5.95000	964.6
5.96667	964.6
5.98333	964.6
6.00000	964.6
6.01667	964.6
6.03333	964.6
6.05000	964.6
6.06667	964.6
6.08333	964.6
6.10000	964.6
6.11667	964.6
6.13333	964.6
6.15000	964.6
6.16667	964.6
6.18333	964.6
6.20000	964.6
6.21667	964.6
6.23333	964.6
6.25000	964.6
6.26667	964.6
6.28333	964.6
6.30000	964.6
6.31667	964.6
6.33333	964.6
6.35000	964.6
6.36667	964.6
6.38333	964.6
6.40000	964.6
6.41667	964.6
6.43333	964.6
6.45000	964.6
6.46667	964.6
6.48333	964.6
6.50000	964.6
6.51667	964.6
6.53333	964.6
6.55000	964.6
6.56667	964.6
6.58333	964.6
6.60000	964.6
6.61667	964.6
6.63333	964.6
6.65000	964.6
6.66667	964.6
6.68333	964.6
6.70000	964.6
6.71667	964.6
6.73333	964.6
6.75000	964.6
6.76667	964.6
6.78333	964.6
6.80000	964.6
6.81667	964.6
6.83333	964.6
6.85000	964.6
6.86667	964.6
6.88333	964.6
6.90000	964.6
6.91667	964.6
6.93333	964.6
6.95000	964.6
6.96667	964.6
6.98333	964.6
7.00000	964.6
7.01667	964.6
7.03333	964.6
7.05000	964.6
7.06667	964.6
7.08333	964.6
7.10000	964.6
7.11667	964.6
7.13333	964.6
7.15000	964.6
7.16667	964.6
7.18333	964.6
7.20000	964.6
7.21667	964.6
7.23333	964.6
7.25000	964.6
7.26667	964.6
7.28333	964.6
7.30000	964.6
7.31667	964.6
7.33333	964.6
7.35000	964.6
7.36667	964.6
7.38333	964.6
7.40000	964.6
7.41667	964.6
7.43333	964.6
7.45000	964.6
7.46667	964.6
7.48333	964.6
7.50000	964.6
7.51667	964.6
7.53333	964.6
7.55000	964.6
7.56667	964.6
7.58333	964.6
7.60000	964.6
7.61667	964.6
7.63333	964.6
7.65000	964.6
7.66667	964.6
7.68333	964.6
7.70000	964.6
7.71667	964.6
7.73333	964.6
7.75000	964.6
7.76667	964.6
7.78333	964.6
7.80000	964.6
7.81667	964.6
7.83333	964.6
7.85000	964.6
7.86667	964.6
7.88333	964.6
7.90000	964.6
7.91667	964.6
7.93333	964.6
7.95000	964.6
7.96667	964.6
7.98333	964.6
8.00000	964.6
8.01667	964.6
8.03333	964.6
8.05000	964.6
8.06667	964.6
8.08333	964.6
8.10000	964.6
8.11667	964.6
8.13333	964.6
8.15000	964.6
8.16667	964.6
8.18333	964.6
8.20000	964.6
8.21667	964.6
8.23333	964.6
8.25000	964.6
8.26667	964.6
8.28333	964.6
8.30000	964.6
8.31667	964.6
8.33333	964.6
8.35000	964.6
8.36667	964.6
8.38333	964.6
8.40000	964.6
8.41667	964.6
8.43333	964.6
8.45000	964.6
8.46667	964.6
8.48333	964.6
8.50000	964.6
8.51667	964.6
8.53333	964.6
8.55000	964.6
8.56667	964.6
8.58333	964.6
8.60000	964.6
8.61667	964.6
8.63333	964.6
8.65000	964.6
8.66667	964.6
8.68333	964.6
8.70000	964.6
8.71667	964.6
8.73333	964.6
8.75000	964.6
8.76667	964.6
8.78333	964.6
8.80000	964.6
8.81667	964.6
8.83333	964.6
8.85000	964.6
8.86667	964.6
8.88333	964.6
8.90000	964.6
8.91667	964.6
8.93333	964.6
8.95000	964.6
8.96667	964.6
8.98333	964.6
9.00000	964.6
9.01667	964.6
9.03333	964.6
9.05000	964.6
9.06667	964.6
9.08333	964.6
9.10000	964.6
9.11667	964.6
9.13333	964.6
9.15000	964.6
9.16667	964.6
9.18333	964.6
9.20000	964.6
9.21667	964.6
9.23333	964.6
9.25000	964.6
9.26667	964.6
9.28333	964.6
9.30000	964.6
9.31667	964.6
9.33333	964.6
9.35000	964.6
9.36667	964.6
9.38333	964.6
9.40000	964.6
9.41667	964.6
9.43333	964.6
9.45000	964.6
9.46667	964.6
9.48333	964.6
9.50000	964.6
9.51667	964.6
9.53333	964.6
9.55000	964.6
9.56667	964.6
9.58333	964.6
9.60000	964.6
9.61667	964.6
9.63333	964.6
9.65000	964.6
9.66667	964.6
9.68333	964.6
9.70000	964.6
9.71667	964.6
9.73333	964.6
9.75000	964.6
9.76667	964.6
9.78333	964.6
9.80000	964.6
9.81667	964.6
9.83333	964.6
9.85000	964.6
9.86667	964.6
9.88333	964.6
9.90000	964.6
9.91667	964.6
9.93333	964.6
9.95000	964.6
9.96667	964.6
9.98333	964.6
10.00000	964.6

[LC Status Trace(RF A Cell Temp.)]
Interval(msec)	1000
# of Points	601
Start Time(min)	0.000
End Time(min)	10.000
Intensity Units	C
Intensity Multiplier	1
R.Time (min)	Intensity
0.00000	40.00
0.01667	40.00
0.03333	39.99
0.05000	40.00
0.06667	40.00
0.08333	40.00
0.10000	40.00
0.11667	40.00
0.13333	40.03
0.15000	40.02
0.16667	40.03
0.18333	40.00
0.20000	40.00
0.21667	40.00
0.23333	40.07
0.25000	40.03
0.26667	40.06
0.28333	40.07
0.30000	40.05
0.31667	40.06
0.33333	40.08
0.35000	40.06
0.36667	40.02
0.38333	40.00
0.40000	40.07
0.41667	40.07
0.43333	40.00
0.45000	40.03
0.46667	40.03
0.48333	40.00
0.50000	40.02
0.51667	40.02
0.53333	40.00
0.55000	40.00
0.56667	40.00
0.58333	40.02
0.60000	40.03
0.61667	40.02
0.63333	39.99
0.65000	40.02
0.66667	40.02
0.68333	40.00
0.70000	40.00
0.71667	40.02
0.73333	40.07
0.75000	40.02
0.76667	40.00
0.78333	40.00
0.80000	40.00
0.81667	40.00
0.83333	40.03
0.85000	40.00
0.86667	40.02
0.88333	40.02
0.90000	40.00
0.91667	40.00
0.93333	40.00
0.95000	40.00
0.96667	40.00
0.98333	40.00
1.00000	40.02
1.01667	40.02
1.03333	40.06
1.05000	40.02
1.06667	40.00
1.08333	39.99
1.10000	40.00
1.11667	40.00
1.13333	40.00
1.15000	40.00
1.16667	40.00
1.18333	40.02
1.20000	40.00
1.21667	40.00
1.23333	40.00
1.25000	40.02
1.26667	40.00
1.28333	40.00
1.30000	40.00
1.31667	40.02
1.33333	40.00
1.35000	40.02
1.36667	40.00
1.38333	40.00
1.40000	40.00
1.41667	40.00
1.43333	40.00
1.45000	40.00
1.46667	40.00
1.48333	40.00
1.50000	40.00
1.51667	40.00
1.53333	40.00
1.55000	40.00
1.56667	40.00
1.58333	39.96
1.60000	39.95
1.61667	39.96
1.63333	39.93
1.65000	39.96
1.66667	39.95
1.68333	39.95
1.70000	39.98
1.71667	39.99
1.73333	40.00
1.75000	40.00
1.76667	40.00
1.78333	39.98
1.80000	40.00
1.81667	40.00
1.83333	40.00
1.85000	40.00
1.86667	39.99
1.88333	40.00
1.90000	40.00
1.91667	40.00
1.93333	40.02
1.95000	40.00
1.96667	40.00
1.98333	40.03
2.00000	40.03
2.01667	40.00
2.03333	40.05
2.05000	40.02
2.06667	40.03
2.08333	40.00
2.10000	40.00
2.11667	40.00
2.13333	39.96
2.15000	39.96
2.16667	39.98
2.18333	39.97
2.20000	39.99
2.21667	39.99
2.23333	40.00
2.25000	40.02
2.26667	40.00
2.28333	40.00
2.30000	40.00
2.31667	40.00
2.33333	40.00
2.35000	40.00
2.36667	39.99
2.38333	40.00
2.40000	40.00
2.41667	40.02
2.43333	40.03
2.45000	40.00
2.46667	40.02
2.48333	40.00
2.50000	40.00
2.51667	40.00
2.53333	39.99
2.55000	39.95
2.56667	39.95
2.58333	39.93
2.60000	39.98
2.61667	40.00
2.63333	40.00
2.65000	40.02
2.66667	39.99
2.68333	40.00
2.70000	40.00
2.71667	40.00
2.73333	40.00
2.75000	40.05
2.76667	40.03
2.78333	40.05
2.80000	40.00
2.81667	40.00
2.83333	40.02
2.85000	40.05
2.86667	40.02
2.88333	40.00
2.90000	39.96
2.91667	39.95
2.93333	39.93
2.95000	40.00
2.96667	39.99
2.98333	39.99
3.00000	40.00
3.01667	40.02
3.03333	40.00
3.05000	40.00
3.06667	40.00
3.08333	40.00
3.10000	40.00
3.11667	40.00
3.13333	40.02
3.15000	40.00
3.16667	39.97
3.18333	39.97
3.20000	39.97
3.21667	39.99
3.23333	40.02
3.25000	40.02
3.26667	40.00
3.28333	40.00
3.30000	40.00
3.31667	40.02
3.33333	40.00
3.35000	40.00
3.36667	40.07
3.38333	40.05
3.40000	40.00
3.41667	40.03
3.43333	40.00
3.45000	39.99
3.46667	39.99
3.48333	39.98
3.50000	40.06
3.51667	40.00
3.53333	39.95
3.55000	39.97
3.56667	40.00
3.58333	40.00
3.60000	40.08
3.61667	40.02
3.63333	40.00
3.65000	40.00
3.66667	40.00
3.68333	39.99
3.70000	40.00
3.71667	40.00
3.73333	39.99
3.75000	40.00
3.76667	40.00
3.78333	40.00
3.80000	39.99
3.81667	40.00
3.83333	40.02
3.85000	40.00
3.86667	40.00
3.88333	39.99
3.90000	40.03
3.91667	40.07
3.93333	40.00
3.95000	39.99
3.96667	39.97
3.98333	39.98
4.00000	40.00
4.01667	40.00
4.03333	40.00
4.05000	40.00
4.06667	40.00
4.08333	40.00
4.10000	40.00
4.11667	40.03
4.13333	40.02
4.15000	40.00
4.16667	39.99
4.18333	39.99
4.20000	39.93
4.21667	39.96
4.23333	39.99
4.25000	40.00
4.26667	40.00
4.28333	40.00
4.30000	40.00
4.31667	40.02
4.33333	40.00
4.35000	40.00
4.36667	40.00
4.38333	40.08
4.40000	40.07
4.41667	40.02
4.43333	39.98
4.45000	39.98
4.46667	39.95
4.48333	39.96
4.50000	39.99
4.51667	40.00
4.53333	40.03
4.55000	40.02
4.56667	40.00
4.58333	39.99
4.60000	39.99
4.61667	40.00
4.63333	40.00
4.65000	40.03
4.66667	40.02
4.68333	40.00
4.70000	40.03
4.71667	39.99
4.73333	39.97
4.75000	39.95
4.76667	39.96
4.78333	40.00
4.80000	40.00
4.81667	40.02
4.83333	40.00
4.85000	40.00
4.86667	40.00
4.88333	40.00
4.90000	40.00
4.91667	40.00
4.93333	39.99
4.95000	40.00
4.96667	40.02
4.98333	40.00
5.00000	39.99
5.01667	40.00
5.03333	39.98
5.05000	39.97
5.06667	39.95
5.08333	40.00
5.10000	40.00
5.11667	40.00
5.13333	40.00
5.15000	40.00
5.16667	39.99
5.18333	40.00
5.20000	40.00
5.21667	40.00
5.23333	40.00
5.25000	40.00
5.26667	39.99
5.28333	39.99
5.30000	39.98
5.31667	39.99
5.33333	39.99
5.35000	39.99
5.36667	39.99
5.38333	39.99
5.40000	40.00
5.41667	40.02
5.43333	40.00
5.45000	40.03
5.46667	40.00
5.48333	40.05
5.50000	40.05
5.51667	40.00
5.53333	40.00
5.55000	40.02
5.56667	40.00
5.58333	40.03
5.60000	39.99
5.61667	39.95
5.63333	40.00
5.65000	39.99
5.66667	39.99
5.68333	40.00
5.70000	40.08
5.71667	40.00
5.73333	40.00
5.75000	40.00
5.76667	40.00
5.78333	40.00
5.80000	40.00
5.81667	40.02
5.83333	40.03
5.85000	40.00
5.86667	39.99
5.88333	40.00
5.90000	40.00
5.91667	40.00
5.93333	39.99
5.95000	40.00
5.96667	39.97
5.98333	39.93
6.00000	39.97
6.01667	39.97
6.03333	39.99
6.05000	39.99
6.06667	40.00
6.08333	40.00
6.10000	40.00
6.11667	40.11
6.13333	40.06
6.15000	40.00
6.16667	40.00
6.18333	40.03
6.20000	40.02
6.21667	40.02
6.23333	40.03
6.25000	40.02
6.26667	40.00
6.28333	40.00
6.30000	40.03
6.31667	40.02
6.33333	40.02
6.35000	40.00
6.36667	40.00
6.38333	40.03
6.40000	40.03
6.41667	40.00
6.43333	40.00
6.45000	40.00
6.46667	40.00
6.48333	40.00
6.50000	40.02
6.51667	40.00
6.53333	40.00
6.55000	40.00
6.56667	40.00
6.58333	40.00
6.60000	40.06
6.61667	40.06
6.63333	40.00
6.65000	40.00
6.66667	40.00
6.68333	40.00
6.70000	40.00
6.71667	40.00
6.73333	40.00
6.75000	40.00
6.76667	40.02
6.78333	40.03
6.80000	40.03
6.81667	40.05
6.83333	40.00
6.85000	40.02
6.86667	39.99
6.88333	40.00
6.90000	40.00
6.91667	40.00
6.93333	40.00
6.95000	40.00
6.96667	40.00
6.98333	40.00
7.00000	40.00
7.01667	40.00
7.03333	40.00
7.05000	40.00
7.06667	40.03
7.08333	40.00
7.10000	40.00
7.11667	40.03
7.13333	40.05
7.15000	40.00
7.16667	40.00
7.18333	40.00
7.20000	40.00
7.21667	40.00
7.23333	40.00
7.25000	40.00
7.26667	40.02
7.28333	40.05
7.30000	40.06
7.31667	40.03
7.33333	40.02
7.35000	40.00
7.36667	40.00
7.38333	40.00
7.40000	40.00
7.41667	40.00
7.43333	40.00
7.45000	40.00
7.46667	39.99
7.48333	39.99
7.50000	39.96
7.51667	39.96
7.53333	39.93
7.55000	39.98
7.56667	39.96
7.58333	39.93
7.60000	39.93
7.61667	39.95
7.63333	39.98
7.65000	40.02
7.66667	40.00
7.68333	40.00
7.70000	40.00
7.71667	40.00
7.73333	39.98
7.75000	40.00
7.76667	40.03
7.78333	40.00
7.80000	40.00
7.81667	40.00
7.83333	40.05
7.85000	40.00
7.86667	40.02
7.88333	40.02
7.90000	40.00
7.91667	40.00
7.93333	40.00
7.95000	40.02
7.96667	40.05
7.98333	40.00
8.00000	40.00
8.01667	40.00
8.03333	40.00
8.05000	40.00
8.06667	40.00
8.08333	40.00
8.10000	40.00
8.11667	40.02
8.13333	40.00
8.15000	39.99
8.16667	39.97
8.18333	39.95
8.20000	39.95
8.21667	39.95
8.23333	39.98
8.25000	39.98
8.26667	39.93
8.28333	39.95
8.30000	39.96
8.31667	40.00
8.33333	40.03
8.35000	40.00
8.36667	40.00
8.38333	40.02
8.40000	40.03
8.41667	40.05
8.43333	40.02
8.45000	40.00
8.46667	40.00
8.48333	40.00
8.50000	40.02
8.51667	40.00
8.53333	40.00
8.55000	40.00
8.56667	40.03
8.58333	40.00
8.60000	40.00
8.61667	40.00
8.63333	39.99
8.65000	40.00
8.66667	39.99
8.68333	39.95
8.70000	39.93
8.71667	39.99
8.73333	40.07
8.75000	40.06
8.76667	40.00
8.78333	40.00
8.80000	40.02
8.81667	40.00
8.83333	40.02
8.85000	40.02
8.86667	40.00
8.88333	40.00
8.90000	39.99
8.91667	40.00
8.93333	40.00
8.95000	40.02
8.96667	40.05
8.98333	40.03
9.00000	40.02
9.01667	40.00
9.03333	40.00
9.05000	40.00
9.06667	40.00
9.08333	40.00
9.10000	40.00
9.11667	40.00
9.13333	39.97
9.15000	39.98
9.16667	39.96
9.18333	39.97
9.20000	39.96
9.21667	39.96
9.23333	39.93
9.25000	39.95
9.26667	39.98
9.28333	39.99
9.30000	39.99
9.31667	40.00
9.33333	39.98
9.35000	40.00
9.36667	40.03
9.38333	40.05
9.40000	40.00
9.41667	40.00
9.43333	40.00
9.45000	40.00
9.46667	40.00
9.48333	40.09
9.50000	39.99
9.51667	40.03
9.53333	40.08
9.55000	40.07
9.56667	40.03
9.58333	40.05
9.60000	40.02
9.61667	40.00
9.63333	40.03
9.65000	40.03
9.66667	40.00
9.68333	40.00
9.70000	39.99
9.71667	39.99
9.73333	39.99
9.75000	39.99
9.76667	39.99
9.78333	39.93
9.80000	39.95
9.81667	39.96
9.83333	39.95
9.85000	39.93
9.86667	39.98
9.88333	39.98
9.90000	39.93
9.91667	39.93
9.93333	39.93
9.95000	39.96
9.96667	39.97
9.98333	39.96
10.00000	39.93

[Fraction Collection Report]
# of Fractions	0
