R.Time (min),Intensity
0.0,-16
0.00833,-16
0.01667,-1
0.025,-1
0.03333,-2
0.04167,-2
0.05,-3
0.05833,-3
0.06667,-4
0.075,-4
0.08333,-5
0.09167,-4
0.1,-4
0.10833,-5
0.11667,-6
0.125,-8
0.13333,-9
0.14167,-11
0.15,-12
0.15833,-13
0.16667,-12
0.175,-12
0.18333,-12
0.19167,-13
0.2,-14
0.20833,-15
0.21667,-16
0.225,-17
0.23333,-17
0.24167,-18
0.25,-20
0.25833,-21
0.26667,-21
0.275,-21
0.28333,-23
0.29167,-23
0.3,-24
0.30833,-24
0.31667,-25
0.325,-25
0.33333,-26
0.34167,-27
0.35,-29
0.35833,-30
0.36667,-33
0.375,-35
0.38333,-36
0.39167,-36
0.4,-36
0.40833,-37
0.41667,-36
0.425,-36
0.43333,-37
0.44167,-37
0.45,-37
0.45833,-37
0.46667,-37
0.475,-38
0.48333,-37
0.49167,-38
0.5,-39
0.50833,-41
0.51667,-43
0.525,-45
0.53333,-45
0.54167,-45
0.55,-44
0.55833,-44
0.56667,-44
0.575,-44
0.58333,-45
0.59167,-45
0.6,-45
0.60833,-46
0.61667,-47
0.625,-47
0.63333,-48
0.64167,-49
0.65,-50
0.65833,-51
0.66667,-51
0.675,-52
0.68333,-51
0.69167,-51
0.7,-51
0.70833,-52
0.71667,-51
0.725,-51
0.73333,-51
0.74167,-51
0.75,-52
0.75833,-53
0.76667,-54
0.775,-53
0.78333,-51
0.79167,-50
0.8,-50
0.80833,-50
0.81667,-51
0.825,-52
0.83333,-53
0.84167,-54
0.85,-54
0.85833,-54
0.86667,-55
0.875,-56
0.88333,-57
0.89167,-58
0.9,-59
0.90833,-59
0.91667,-59
0.925,-60
0.93333,-62
0.94167,-63
0.95,-64
0.95833,-66
0.96667,-67
0.975,-68
0.98333,-69
0.99167,-70
1.0,-70
1.00833,-71
1.01667,-72
1.025,-73
1.03333,-75
1.04167,-77
1.05,-78
1.05833,-79
1.06667,-80
1.075,-79
1.08333,-79
1.09167,-79
1.1,-79
1.10833,-80
1.11667,-80
1.125,-80
1.13333,-81
1.14167,-82
1.15,-81
1.15833,-81
1.16667,-82
1.175,-83
1.18333,-84
1.19167,-84
1.2,-85
1.20833,-84
1.21667,-84
1.225,-83
1.23333,-83
1.24167,-83
1.25,-82
1.25833,-82
1.26667,-81
1.275,-80
1.28333,-80
1.29167,-80
1.3,-80
1.30833,-79
1.31667,-79
1.325,-80
1.33333,-81
1.34167,-82
1.35,-82
1.35833,-81
1.36667,-81
1.375,-80
1.38333,-80
1.39167,-80
1.4,-81
1.40833,-82
1.41667,-83
1.425,-84
1.43333,-85
1.44167,-85
1.45,-85
1.45833,-86
1.46667,-87
1.475,-88
1.48333,-87
1.49167,-86
1.5,-86
1.50833,-87
1.51667,-87
1.525,-87
1.53333,-86
1.54167,-86
1.55,-85
1.55833,-83
1.56667,-80
1.575,-77
1.58333,-74
1.59167,-70
1.6,-64
1.60833,-56
1.61667,-48
1.625,-37
1.63333,-23
1.64167,-5
1.65,17
1.65833,43
1.66667,76
1.675,116
1.68333,168
1.69167,232
1.7,312
1.70833,409
1.71667,528
1.725,673
1.73333,847
1.74167,1054
1.75,1300
1.75833,1589
1.76667,1926
1.775,2311
1.78333,2746
1.79167,3232
1.8,3767
1.80833,4349
1.81667,4971
1.825,5626
1.83333,6305
1.84167,6994
1.85,7682
1.85833,8353
1.86667,8994
1.875,9589
1.88333,10126
1.89167,10592
1.9,10978
1.90833,11273
1.91667,11475
1.925,11579
1.93333,11585
1.94167,11495
1.95,11314
1.95833,11049
1.96667,10706
1.975,10295
1.98333,9827
1.99167,9315
2.0,8766
2.00833,8194
2.01667,7605
2.025,7012
2.03333,6425
2.04167,5848
2.05,5288
2.05833,4752
2.06667,4243
2.075,3767
2.08333,3324
2.09167,2915
2.1,2543
2.10833,2205
2.11667,1902
2.125,1631
2.13333,1391
2.14167,1180
2.15,997
2.15833,837
2.16667,697
2.175,577
2.18333,475
2.19167,388
2.2,316
2.20833,255
2.21667,203
2.225,159
2.23333,122
2.24167,92
2.25,65
2.25833,42
2.26667,24
2.275,10
2.28333,-1
2.29167,-12
2.3,-22
2.30833,-31
2.31667,-38
2.325,-44
2.33333,-49
2.34167,-54
2.35,-58
2.35833,-62
2.36667,-66
2.375,-69
2.38333,-71
2.39167,-73
2.4,-77
2.40833,-80
2.41667,-82
2.425,-84
2.43333,-87
2.44167,-90
2.45,-93
2.45833,-95
2.46667,-97
2.475,-99
2.48333,-101
2.49167,-103
2.5,-106
2.50833,-107
2.51667,-108
2.525,-110
2.53333,-111
2.54167,-113
2.55,-113
2.55833,-114
2.56667,-116
2.575,-117
2.58333,-119
2.59167,-121
2.6,-123
2.60833,-123
2.61667,-123
2.625,-124
2.63333,-125
2.64167,-126
2.65,-127
2.65833,-128
2.66667,-128
2.675,-129
2.68333,-129
2.69167,-131
2.7,-131
2.70833,-132
2.71667,-134
2.725,-135
2.73333,-135
2.74167,-135
2.75,-135
2.75833,-135
2.76667,-136
2.775,-136
2.78333,-136
2.79167,-137
2.8,-138
2.80833,-138
2.81667,-139
2.825,-139
2.83333,-140
2.84167,-138
2.85,-130
2.85833,-110
2.86667,-67
2.875,14
2.88333,148
2.89167,347
2.9,617
2.90833,946
2.91667,1318
2.925,1706
2.93333,2082
2.94167,2423
2.95,2712
2.95833,2936
2.96667,3095
2.975,3189
2.98333,3222
2.99167,3200
3.0,3135
3.00833,3038
3.01667,2915
3.025,2777
3.03333,2634
3.04167,2497
3.05,2373
3.05833,2277
3.06667,2233
3.075,2290
3.08333,2522
3.09167,2977
3.1,3630
3.10833,4372
3.11667,5059
3.125,5571
3.13333,5843
3.14167,5868
3.15,5680
3.15833,5334
3.16667,4887
3.175,4390
3.18333,3888
3.19167,3411
3.2,2977
3.20833,2595
3.21667,2269
3.225,1996
3.23333,1773
3.24167,1595
3.25,1453
3.25833,1341
3.26667,1254
3.275,1187
3.28333,1138
3.29167,1102
3.3,1079
3.30833,1068
3.31667,1064
3.325,1065
3.33333,1070
3.34167,1078
3.35,1089
3.35833,1100
3.36667,1111
3.375,1121
3.38333,1131
3.39167,1139
3.4,1142
3.40833,1137
3.41667,1123
3.425,1101
3.43333,1076
3.44167,1049
3.45,1027
3.45833,1013
3.46667,1010
3.475,1018
3.48333,1037
3.49167,1066
3.5,1097
3.50833,1126
3.51667,1146
3.525,1154
3.53333,1146
3.54167,1122
3.55,1087
3.55833,1046
3.56667,1004
3.575,967
3.58333,935
3.59167,909
3.6,890
3.60833,873
3.61667,856
3.625,835
3.63333,809
3.64167,779
3.65,747
3.65833,714
3.66667,683
3.675,658
3.68333,639
3.69167,634
3.7,670
3.70833,842
3.71667,1454
3.725,3307
3.73333,8188
3.74167,19376
3.75,41780
3.75833,81257
3.76667,143015
3.775,229803
3.78333,340933
3.79167,472661
3.8,619449
3.80833,775097
3.81667,933154
3.825,1086986
3.83333,1230172
3.84167,1357351
3.85,1464477
3.85833,1547275
3.86667,1598541
3.875,1607580
3.88333,1564166
3.89167,1464904
3.9,1317248
3.90833,1138076
3.91667,948048
3.925,765507
3.93333,602897
3.94167,466219
3.95,356379
3.95833,271099
3.96667,206587
3.975,158679
3.98333,123511
3.99167,97823
4.0,79029
4.00833,65175
4.01667,54831
4.025,46979
4.03333,40904
4.04167,36114
4.05,32283
4.05833,29212
4.06667,26848
4.075,25357
4.08333,25345
4.09167,28257
4.1,36962
4.10833,56242
4.11667,92655
4.125,153145
4.13333,242394
4.14167,359834
4.15,497921
4.15833,642880
4.16667,777814
4.175,886857
4.18333,958722
4.19167,988544
4.2,977761
4.20833,932628
4.21667,862096
4.225,775772
4.23333,682399
4.24167,588990
4.25,500541
4.25833,420149
4.26667,349349
4.275,288520
4.28333,237276
4.29167,194777
4.3,159960
4.30833,131702
4.31667,108920
4.325,90634
4.33333,75988
4.34167,64257
4.35,54844
4.35833,47264
4.36667,41129
4.375,36130
4.38333,32027
4.39167,28631
4.4,25794
4.40833,23405
4.41667,21375
4.425,19635
4.43333,18128
4.44167,16814
4.45,15661
4.45833,14643
4.46667,13739
4.475,12929
4.48333,12201
4.49167,11544
4.5,10949
4.50833,10405
4.51667,9909
4.525,9454
4.53333,9035
4.54167,8648
4.55,8290
4.55833,7959
4.56667,7652
4.575,7367
4.58333,7101
4.59167,6854
4.6,6626
4.60833,6420
4.61667,6239
4.625,6090
4.63333,5985
4.64167,5950
4.65,6026
4.65833,6288
4.66667,6859
4.675,7934
4.68333,9802
4.69167,12869
4.7,17658
4.70833,24785
4.71667,34889
4.725,48509
4.73333,65942
4.74167,87080
4.75,111300
4.75833,137426
4.76667,163815
4.775,188547
4.78333,209690
4.79167,225588
4.8,235087
4.80833,237657
4.81667,233423
4.825,223081
4.83333,207774
4.84167,188906
4.85,167951
4.85833,146286
4.86667,125067
4.875,105164
4.88333,87145
4.89167,71308
4.9,57737
4.90833,46356
4.91667,36986
4.925,29396
4.93333,23336
4.94167,18554
4.95,14820
4.95833,11931
4.96667,9712
4.975,8016
4.98333,6725
4.99167,5742
5.0,4992
5.00833,4416
5.01667,3971
5.025,3623
5.03333,3348
5.04167,3126
5.05,2943
5.05833,2790
5.06667,2659
5.075,2545
5.08333,2445
5.09167,2355
5.1,2276
5.10833,2205
5.11667,2141
5.125,2082
5.13333,2029
5.14167,1981
5.15,1938
5.15833,1897
5.16667,1859
5.175,1821
5.18333,1786
5.19167,1752
5.2,1719
5.20833,1687
5.21667,1657
5.225,1631
5.23333,1606
5.24167,1587
5.25,1576
5.25833,1577
5.26667,1596
5.275,1640
5.28333,1724
5.29167,1869
5.3,2117
5.30833,2534
5.31667,3244
5.325,4472
5.33333,6620
5.34167,10386
5.35,16927
5.35833,28049
5.36667,46369
5.375,75323
5.38333,118881
5.39167,180857
5.4,263859
5.40833,368155
5.41667,490890
5.425,626018
5.43333,765068
5.44167,898543
5.45,1017475
5.45833,1114703
5.46667,1185597
5.475,1228214
5.48333,1242980
5.49167,1232120
5.5,1199012
5.50833,1147616
5.51667,1082012
5.525,1006125
5.53333,923544
5.54167,837428
5.55,750501
5.55833,665042
5.56667,582907
5.575,505545
5.58333,434011
5.59167,368995
5.6,310856
5.60833,259657
5.61667,215215
5.625,177159
5.63333,144979
5.64167,118082
5.65,95839
5.65833,77616
5.66667,62813
5.675,50874
5.68333,41307
5.69167,33678
5.7,27619
5.70833,22819
5.71667,19021
5.725,16015
5.73333,13631
5.74167,11734
5.75,10218
5.75833,8998
5.76667,8009
5.775,7200
5.78333,6531
5.79167,5973
5.8,5503
5.80833,5104
5.81667,4762
5.825,4466
5.83333,4208
5.84167,3981
5.85,3780
5.85833,3604
5.86667,3449
5.875,3315
5.88333,3199
5.89167,3104
5.9,3027
5.90833,2965
5.91667,2914
5.925,2871
5.93333,2834
5.94167,2798
5.95,2761
5.95833,2717
5.96667,2667
5.975,2608
5.98333,2540
5.99167,2463
6.0,2380
6.00833,2292
6.01667,2202
6.025,2111
6.03333,2022
6.04167,1936
6.05,1855
6.05833,1779
6.06667,1709
6.075,1643
6.08333,1582
6.09167,1526
6.1,1475
6.10833,1428
6.11667,1385
6.125,1345
6.13333,1308
6.14167,1273
6.15,1241
6.15833,1211
6.16667,1183
6.175,1155
6.18333,1128
6.19167,1104
6.2,1081
6.20833,1058
6.21667,1037
6.225,1016
6.23333,996
6.24167,977
6.25,960
6.25833,942
6.26667,926
6.275,909
6.28333,894
6.29167,878
6.3,863
6.30833,848
6.31667,834
6.325,820
6.33333,806
6.34167,794
6.35,782
6.35833,770
6.36667,759
6.375,748
6.38333,737
6.39167,726
6.4,717
6.40833,707
6.41667,697
6.425,688
6.43333,680
6.44167,675
6.45,672
6.45833,669
6.46667,669
6.475,671
6.48333,675
6.49167,683
6.5,693
6.50833,702
6.51667,711
6.525,721
6.53333,727
6.54167,732
6.55,733
6.55833,730
6.56667,724
6.575,714
6.58333,701
6.59167,685
6.6,666
6.60833,645
6.61667,623
6.625,603
6.63333,584
6.64167,565
6.65,547
6.65833,530
6.66667,514
6.675,500
6.68333,487
6.69167,477
6.7,467
6.70833,458
6.71667,450
6.725,443
6.73333,438
6.74167,432
6.75,427
6.75833,423
6.76667,419
6.775,413
6.78333,408
6.79167,403
6.8,398
6.80833,395
6.81667,391
6.825,387
6.83333,383
6.84167,381
6.85,379
6.85833,376
6.86667,374
6.875,372
6.88333,370
6.89167,369
6.9,367
6.90833,365
6.91667,363
6.925,361
6.93333,358
6.94167,357
6.95,356
6.95833,354
6.96667,350
6.975,346
6.98333,342
6.99167,338
7.0,333
7.00833,327
7.01667,321
7.025,315
7.03333,309
7.04167,303
7.05,297
7.05833,291
7.06667,285
7.075,280
7.08333,275
7.09167,271
7.1,267
7.10833,262
7.11667,257
7.125,253
7.13333,249
7.14167,245
7.15,240
7.15833,235
7.16667,231
7.175,227
7.18333,224
7.19167,219
7.2,215
7.20833,212
7.21667,208
7.225,204
7.23333,200
7.24167,196
7.25,193
7.25833,189
7.26667,186
7.275,184
7.28333,181
7.29167,178
7.3,175
7.30833,172
7.31667,169
7.325,167
7.33333,165
7.34167,162
7.35,160
7.35833,158
7.36667,157
7.375,154
7.38333,150
7.39167,146
7.4,142
7.40833,138
7.41667,135
7.425,132
7.43333,129
7.44167,127
7.45,125
7.45833,122
7.46667,120
7.475,118
7.48333,116
7.49167,114
7.5,113
7.50833,110
7.51667,108
7.525,105
7.53333,103
7.54167,102
7.55,102
7.55833,101
7.56667,100
7.575,98
7.58333,97
7.59167,96
7.6,95
7.60833,93
7.61667,93
7.625,92
7.63333,90
7.64167,89
7.65,87
7.65833,86
7.66667,84
7.675,82
7.68333,80
7.69167,79
7.7,77
7.70833,75
7.71667,73
7.725,71
7.73333,69
7.74167,68
7.75,67
7.75833,65
7.76667,64
7.775,63
7.78333,61
7.79167,59
7.8,57
7.80833,55
7.81667,53
7.825,52
7.83333,52
7.84167,50
7.85,49
7.85833,48
7.86667,45
7.875,44
7.88333,42
7.89167,41
7.9,39
7.90833,38
7.91667,37
7.925,36
7.93333,35
7.94167,34
7.95,32
7.95833,30
7.96667,29
7.975,29
7.98333,28
7.99167,27
8.0,25
8.00833,23
8.01667,22
8.025,21
8.03333,20
8.04167,19
8.05,18
8.05833,19
8.06667,19
8.075,18
8.08333,18
8.09167,17
8.1,17
8.10833,17
8.11667,18
8.125,19
8.13333,20
8.14167,21
8.15,21
8.15833,22
8.16667,22
8.175,22
8.18333,22
8.19167,21
8.2,21
8.20833,21
8.21667,20
8.225,18
8.23333,17
8.24167,17
8.25,17
8.25833,16
8.26667,14
8.275,11
8.28333,8
8.29167,6
8.3,4
8.30833,2
8.31667,0
8.325,-3
8.33333,-5
8.34167,-8
8.35,-10
8.35833,-11
8.36667,-13
8.375,-14
8.38333,-16
8.39167,-17
8.4,-19
8.40833,-20
8.41667,-21
8.425,-22
8.43333,-23
8.44167,-25
8.45,-26
8.45833,-27
8.46667,-29
8.475,-30
8.48333,-30
8.49167,-31
8.5,-31
8.50833,-33
8.51667,-34
8.525,-35
8.53333,-36
8.54167,-37
8.55,-38
8.55833,-39
8.56667,-40
8.575,-40
8.58333,-41
8.59167,-40
8.6,-41
8.60833,-42
8.61667,-42
8.625,-43
8.63333,-43
8.64167,-45
8.65,-45
8.65833,-46
8.66667,-46
8.675,-47
8.68333,-49
8.69167,-49
8.7,-49
8.70833,-50
8.71667,-52
8.725,-52
8.73333,-53
8.74167,-54
8.75,-55
8.75833,-56
8.76667,-57
8.775,-57
8.78333,-57
8.79167,-57
8.8,-56
8.80833,-55
8.81667,-56
8.825,-57
8.83333,-59
8.84167,-60
8.85,-61
8.85833,-61
8.86667,-61
8.875,-61
8.88333,-61
8.89167,-61
8.9,-61
8.90833,-61
8.91667,-61
8.925,-62
8.93333,-63
8.94167,-64
8.95,-66
8.95833,-67
8.96667,-67
8.975,-68
8.98333,-69
8.99167,-70
9.0,-70
9.00833,-71
9.01667,-72
9.025,-72
9.03333,-73
9.04167,-73
9.05,-74
9.05833,-75
9.06667,-76
9.075,-77
9.08333,-78
9.09167,-79
9.1,-80
9.10833,-81
9.11667,-82
9.125,-82
9.13333,-82
9.14167,-83
9.15,-84
9.15833,-85
9.16667,-86
9.175,-87
9.18333,-88
9.19167,-88
9.2,-88
9.20833,-89
9.21667,-89
9.225,-90
9.23333,-91
9.24167,-92
9.25,-92
9.25833,-92
9.26667,-92
9.275,-91
9.28333,-92
9.29167,-92
9.3,-92
9.30833,-93
9.31667,-93
9.325,-94
9.33333,-93
9.34167,-93
9.35,-94
9.35833,-95
9.36667,-95
9.375,-94
9.38333,-94
9.39167,-93
9.4,-94
9.40833,-93
9.41667,-92
9.425,-91
9.43333,-90
9.44167,-90
9.45,-88
9.45833,-85
9.46667,-83
9.475,-81
9.48333,-80
9.49167,-78
9.5,-77
9.50833,-76
9.51667,-77
9.525,-77
9.53333,-77
9.54167,-78
9.55,-78
9.55833,-79
9.56667,-79
9.575,-79
9.58333,-79
9.59167,-78
9.6,-78
9.60833,-77
9.61667,-76
9.625,-76
9.63333,-76
9.64167,-76
9.65,-77
9.65833,-78
9.66667,-79
9.675,-79
9.68333,-78
9.69167,-79
9.7,-80
9.70833,-81
9.71667,-82
9.725,-83
9.73333,-83
9.74167,-81
9.75,-80
9.75833,-80
9.76667,-82
9.775,-82
9.78333,-82
9.79167,-82
9.8,-83
9.80833,-83
9.81667,-84
9.825,-85
9.83333,-86
9.84167,-87
9.85,-87
9.85833,-86
9.86667,-88
9.875,-89
9.88333,-91
9.89167,-92
9.9,-94
9.90833,-95
9.91667,-97
9.925,-99
9.93333,-101
9.94167,-103
9.95,-105
9.95833,-107
9.96667,-108
9.975,-109
9.98333,-109
9.99167,-110
10.0,-110
