R.Time (min),Intensity
0.0,-11
0.00833,-11
0.01667,-2
0.025,-3
0.03333,-4
0.04167,-4
0.05,-3
0.05833,-4
0.06667,-4
0.075,-4
0.08333,-5
0.09167,-6
0.1,-7
0.10833,-8
0.11667,-8
0.125,-8
0.13333,-8
0.14167,-9
0.15,-9
0.15833,-10
0.16667,-10
0.175,-10
0.18333,-10
0.19167,-10
0.2,-11
0.20833,-12
0.21667,-12
0.225,-11
0.23333,-12
0.24167,-12
0.25,-13
0.25833,-13
0.26667,-14
0.275,-15
0.28333,-16
0.29167,-17
0.3,-18
0.30833,-18
0.31667,-17
0.325,-17
0.33333,-17
0.34167,-17
0.35,-18
0.35833,-17
0.36667,-18
0.375,-18
0.38333,-18
0.39167,-17
0.4,-17
0.40833,-17
0.41667,-18
0.425,-19
0.43333,-20
0.44167,-21
0.45,-22
0.45833,-22
0.46667,-22
0.475,-22
0.48333,-22
0.49167,-23
0.5,-23
0.50833,-24
0.51667,-24
0.525,-24
0.53333,-24
0.54167,-24
0.55,-24
0.55833,-24
0.56667,-24
0.575,-24
0.58333,-24
0.59167,-24
0.6,-23
0.60833,-21
0.61667,-20
0.625,-21
0.63333,-21
0.64167,-20
0.65,-18
0.65833,-17
0.66667,-15
0.675,-12
0.68333,-10
0.69167,-7
0.7,-4
0.70833,0
0.71667,4
0.725,8
0.73333,12
0.74167,17
0.75,21
0.75833,27
0.76667,33
0.775,38
0.78333,43
0.79167,47
0.8,52
0.80833,57
0.81667,62
0.825,66
0.83333,68
0.84167,68
0.85,68
0.85833,69
0.86667,68
0.875,68
0.88333,65
0.89167,63
0.9,59
0.90833,56
0.91667,52
0.925,47
0.93333,42
0.94167,36
0.95,31
0.95833,26
0.96667,20
0.975,13
0.98333,7
0.99167,2
1.0,-2
1.00833,-6
1.01667,-10
1.025,-15
1.03333,-19
1.04167,-22
1.05,-24
1.05833,-27
1.06667,-28
1.075,-29
1.08333,-30
1.09167,-31
1.1,-33
1.10833,-34
1.11667,-35
1.125,-36
1.13333,-36
1.14167,-36
1.15,-36
1.15833,-37
1.16667,-38
1.175,-38
1.18333,-39
1.19167,-39
1.2,-40
1.20833,-40
1.21667,-40
1.225,-41
1.23333,-42
1.24167,-41
1.25,-41
1.25833,-40
1.26667,-40
1.275,-40
1.28333,-41
1.29167,-42
1.3,-41
1.30833,-41
1.31667,-42
1.325,-42
1.33333,-42
1.34167,-40
1.35,-40
1.35833,-41
1.36667,-42
1.375,-42
1.38333,-42
1.39167,-41
1.4,-41
1.40833,-41
1.41667,-41
1.425,-40
1.43333,-40
1.44167,-40
1.45,-40
1.45833,-38
1.46667,-35
1.475,-34
1.48333,-32
1.49167,-29
1.5,-25
1.50833,-21
1.51667,-15
1.525,-8
1.53333,0
1.54167,11
1.55,25
1.55833,43
1.56667,64
1.575,90
1.58333,122
1.59167,163
1.6,211
1.60833,271
1.61667,342
1.625,428
1.63333,531
1.64167,653
1.65,794
1.65833,956
1.66667,1139
1.675,1344
1.68333,1571
1.69167,1822
1.7,2094
1.70833,2382
1.71667,2682
1.725,2993
1.73333,3309
1.74167,3623
1.75,3930
1.75833,4220
1.76667,4491
1.775,4735
1.78333,4945
1.79167,5118
1.8,5250
1.80833,5337
1.81667,5378
1.825,5373
1.83333,5323
1.84167,5228
1.85,5094
1.85833,4924
1.86667,4722
1.875,4494
1.88333,4244
1.89167,3977
1.9,3700
1.90833,3418
1.91667,3135
1.925,2855
1.93333,2583
1.94167,2320
1.95,2070
1.95833,1835
1.96667,1617
1.975,1417
1.98333,1233
1.99167,1066
2.0,917
2.00833,784
2.01667,666
2.025,561
2.03333,470
2.04167,392
2.05,326
2.05833,268
2.06667,219
2.075,179
2.08333,144
2.09167,115
2.1,91
2.10833,70
2.11667,51
2.125,35
2.13333,22
2.14167,12
2.15,4
2.15833,-4
2.16667,-10
2.175,-15
2.18333,-20
2.19167,-23
2.2,-25
2.20833,-27
2.21667,-29
2.225,-31
2.23333,-33
2.24167,-34
2.25,-36
2.25833,-38
2.26667,-39
2.275,-41
2.28333,-43
2.29167,-44
2.3,-45
2.30833,-46
2.31667,-47
2.325,-48
2.33333,-49
2.34167,-49
2.35,-50
2.35833,-50
2.36667,-50
2.375,-51
2.38333,-52
2.39167,-53
2.4,-53
2.40833,-53
2.41667,-53
2.425,-52
2.43333,-53
2.44167,-54
2.45,-55
2.45833,-56
2.46667,-57
2.475,-57
2.48333,-57
2.49167,-57
2.5,-57
2.50833,-57
2.51667,-57
2.525,-56
2.53333,-57
2.54167,-57
2.55,-58
2.55833,-58
2.56667,-58
2.575,-57
2.58333,-57
2.59167,-57
2.6,-57
2.60833,-57
2.61667,-57
2.625,-57
2.63333,-58
2.64167,-58
2.65,-58
2.65833,-59
2.66667,-59
2.675,-59
2.68333,-59
2.69167,-60
2.7,-60
2.70833,-59
2.71667,-59
2.725,-60
2.73333,-60
2.74167,-60
2.75,-61
2.75833,-61
2.76667,-62
2.775,-62
2.78333,-62
2.79167,-62
2.8,-62
2.80833,-62
2.81667,-62
2.825,-62
2.83333,-63
2.84167,-62
2.85,-62
2.85833,-62
2.86667,-62
2.875,-62
2.88333,-61
2.89167,-59
2.9,-57
2.90833,-53
2.91667,-46
2.925,-37
2.93333,-29
2.94167,-20
2.95,-12
2.95833,-2
2.96667,7
2.975,16
2.98333,26
2.99167,34
3.0,43
3.00833,50
3.01667,59
3.025,68
3.03333,78
3.04167,88
3.05,100
3.05833,114
3.06667,131
3.075,153
3.08333,182
3.09167,221
3.1,278
3.10833,361
3.11667,473
3.125,606
3.13333,745
3.14167,872
3.15,974
3.15833,1043
3.16667,1078
3.175,1085
3.18333,1069
3.19167,1039
3.2,999
3.20833,954
3.21667,907
3.225,862
3.23333,819
3.24167,780
3.25,744
3.25833,709
3.26667,679
3.275,651
3.28333,628
3.29167,608
3.3,592
3.30833,579
3.31667,570
3.325,561
3.33333,555
3.34167,552
3.35,551
3.35833,553
3.36667,557
3.375,562
3.38333,565
3.39167,567
3.4,565
3.40833,559
3.41667,549
3.425,535
3.43333,519
3.44167,504
3.45,492
3.45833,484
3.46667,483
3.475,490
3.48333,502
3.49167,516
3.5,530
3.50833,539
3.51667,543
3.525,540
3.53333,529
3.54167,511
3.55,490
3.55833,468
3.56667,447
3.575,430
3.58333,417
3.59167,409
3.6,403
3.60833,399
3.61667,393
3.625,386
3.63333,376
3.64167,366
3.65,355
3.65833,346
3.66667,338
3.675,334
3.68333,344
3.69167,415
3.7,707
3.70833,1714
3.71667,4688
3.725,12222
3.73333,28718
3.74167,60103
3.75,112280
3.75833,188464
3.76667,286583
3.775,398394
3.78333,511186
3.79167,611339
3.8,687994
3.80833,735324
3.81667,752903
3.825,744617
3.83333,716849
3.84167,676531
3.85,629471
3.85833,579368
3.86667,527811
3.875,475139
3.88333,421569
3.89167,367936
3.9,315744
3.90833,266747
3.91667,222431
3.925,183715
3.93333,150892
3.94167,123745
3.95,101722
3.95833,84106
3.96667,70145
3.975,59125
3.98333,50424
3.99167,43524
4.0,38013
4.00833,33564
4.01667,29931
4.025,26927
4.03333,24413
4.04167,22285
4.05,20469
4.05833,18925
4.06667,17648
4.075,16707
4.08333,16306
4.09167,16921
4.1,19476
4.10833,25546
4.11667,37423
4.125,57875
4.13333,89457
4.14167,133463
4.15,188922
4.15833,252131
4.16667,317073
4.175,376647
4.18333,424262
4.19167,455236
4.2,467553
4.20833,461869
4.21667,440912
4.225,408611
4.23333,369207
4.24167,326586
4.25,283876
4.25833,243316
4.26667,206309
4.275,173559
4.28333,145255
4.29167,121244
4.3,101162
4.30833,84549
4.31667,70915
4.325,59788
4.33333,50735
4.34167,43377
4.35,37390
4.35833,32507
4.36667,28507
4.375,25211
4.38333,22479
4.39167,20196
4.4,18275
4.40833,16646
4.41667,15252
4.425,14050
4.43333,13005
4.44167,12092
4.45,11287
4.45833,10572
4.46667,9935
4.475,9365
4.48333,8849
4.49167,8383
4.5,7961
4.50833,7576
4.51667,7222
4.525,6895
4.53333,6596
4.54167,6320
4.55,6064
4.55833,5826
4.56667,5604
4.575,5397
4.58333,5201
4.59167,5019
4.6,4849
4.60833,4691
4.61667,4546
4.625,4413
4.63333,4294
4.64167,4197
4.65,4129
4.65833,4105
4.66667,4150
4.675,4306
4.68333,4646
4.69167,5278
4.7,6358
4.70833,8099
4.71667,10771
4.725,14682
4.73333,20148
4.74167,27429
4.75,36665
4.75833,47781
4.76667,60426
4.775,73940
4.78333,87400
4.79167,99732
4.8,109869
4.80833,116928
4.81667,120349
4.825,119968
4.83333,116017
4.84167,109049
4.85,99827
4.85833,89192
4.86667,77952
4.875,66796
4.88333,56248
4.89167,46658
4.9,38217
4.90833,30985
4.91667,24930
4.925,19956
4.93333,15936
4.94167,12733
4.95,10213
4.95833,8250
4.96667,6733
4.975,5568
4.98333,4677
4.99167,3998
5.0,3479
5.00833,3082
5.01667,2776
5.025,2536
5.03333,2346
5.04167,2193
5.05,2068
5.05833,1964
5.06667,1876
5.075,1800
5.08333,1733
5.09167,1675
5.1,1623
5.10833,1577
5.11667,1536
5.125,1500
5.13333,1467
5.14167,1435
5.15,1405
5.15833,1377
5.16667,1351
5.175,1326
5.18333,1302
5.19167,1279
5.2,1257
5.20833,1237
5.21667,1217
5.225,1198
5.23333,1180
5.24167,1162
5.25,1147
5.25833,1136
5.26667,1131
5.275,1134
5.28333,1151
5.29167,1188
5.3,1258
5.30833,1377
5.31667,1579
5.325,1918
5.33333,2485
5.34167,3450
5.35,5109
5.35833,8005
5.36667,13082
5.375,21945
5.38333,37175
5.39167,62628
5.4,103536
5.40833,166097
5.41667,256324
5.425,378221
5.43333,531803
5.44167,711831
5.45,907912
5.45833,1106118
5.46667,1291521
5.475,1450809
5.48333,1574126
5.49167,1655863
5.5,1694527
5.50833,1692010
5.51667,1652655
5.525,1582328
5.53333,1487646
5.54167,1375357
5.55,1251892
5.55833,1123049
5.56667,993812
5.575,868244
5.58333,749476
5.59167,639740
5.6,540434
5.60833,452229
5.61667,375194
5.625,308934
5.63333,252724
5.64167,205627
5.65,166599
5.65833,134574
5.66667,108524
5.675,87493
5.68333,70623
5.69167,57163
5.7,46471
5.70833,38002
5.71667,31309
5.725,26022
5.73333,21841
5.74167,18528
5.75,15894
5.75833,13788
5.76667,12092
5.775,10718
5.78333,9593
5.79167,8663
5.8,7886
5.80833,7231
5.81667,6672
5.825,6188
5.83333,5766
5.84167,5396
5.85,5069
5.85833,4777
5.86667,4517
5.875,4284
5.88333,4075
5.89167,3887
5.9,3720
5.90833,3570
5.91667,3437
5.925,3320
5.93333,3217
5.94167,3126
5.95,3042
5.95833,2962
5.96667,2886
5.975,2811
5.98333,2736
5.99167,2660
6.0,2581
6.00833,2500
6.01667,2417
6.025,2334
6.03333,2252
6.04167,2172
6.05,2094
6.05833,2020
6.06667,1951
6.075,1884
6.08333,1822
6.09167,1763
6.1,1709
6.10833,1658
6.11667,1612
6.125,1569
6.13333,1531
6.14167,1494
6.15,1458
6.15833,1424
6.16667,1391
6.175,1360
6.18333,1331
6.19167,1303
6.2,1276
6.20833,1249
6.21667,1223
6.225,1198
6.23333,1175
6.24167,1152
6.25,1130
6.25833,1109
6.26667,1088
6.275,1069
6.28333,1050
6.29167,1031
6.3,1013
6.30833,997
6.31667,981
6.325,965
6.33333,949
6.34167,934
6.35,919
6.35833,905
6.36667,892
6.375,880
6.38333,867
6.39167,855
6.4,844
6.40833,833
6.41667,822
6.425,812
6.43333,803
6.44167,797
6.45,790
6.45833,784
6.46667,778
6.475,772
6.48333,768
6.49167,765
6.5,765
6.50833,765
6.51667,765
6.525,764
6.53333,763
6.54167,760
6.55,756
6.55833,749
6.56667,740
6.575,730
6.58333,718
6.59167,706
6.6,693
6.60833,681
6.61667,668
6.625,655
6.63333,642
6.64167,630
6.65,619
6.65833,609
6.66667,601
6.675,594
6.68333,587
6.69167,582
6.7,578
6.70833,574
6.71667,570
6.725,567
6.73333,567
6.74167,568
6.75,568
6.75833,569
6.76667,572
6.775,575
6.78333,578
6.79167,581
6.8,584
6.80833,588
6.81667,594
6.825,600
6.83333,607
6.84167,613
6.85,619
6.85833,627
6.86667,633
6.875,640
6.88333,647
6.89167,653
6.9,660
6.90833,667
6.91667,674
6.925,681
6.93333,687
6.94167,692
6.95,696
6.95833,700
6.96667,702
6.975,703
6.98333,703
6.99167,702
7.0,699
7.00833,695
7.01667,689
7.025,682
7.03333,674
7.04167,664
7.05,653
7.05833,642
7.06667,629
7.075,614
7.08333,601
7.09167,588
7.1,573
7.10833,559
7.11667,545
7.125,531
7.13333,515
7.14167,499
7.15,485
7.15833,470
7.16667,455
7.175,441
7.18333,428
7.19167,415
7.2,402
7.20833,390
7.21667,379
7.225,368
7.23333,358
7.24167,349
7.25,338
7.25833,328
7.26667,319
7.275,311
7.28333,302
7.29167,294
7.3,288
7.30833,281
7.31667,275
7.325,269
7.33333,263
7.34167,259
7.35,255
7.35833,251
7.36667,247
7.375,243
7.38333,240
7.39167,236
7.4,233
7.40833,230
7.41667,227
7.425,223
7.43333,219
7.44167,215
7.45,212
7.45833,208
7.46667,206
7.475,204
7.48333,201
7.49167,199
7.5,197
7.50833,195
7.51667,194
7.525,192
7.53333,191
7.54167,190
7.55,188
7.55833,186
7.56667,184
7.575,181
7.58333,179
7.59167,179
7.6,178
7.60833,176
7.61667,174
7.625,171
7.63333,170
7.64167,168
7.65,168
7.65833,167
7.66667,166
7.675,165
7.68333,163
7.69167,162
7.7,161
7.70833,159
7.71667,157
7.725,156
7.73333,155
7.74167,155
7.75,154
7.75833,153
7.76667,151
7.775,149
7.78333,148
7.79167,146
7.8,146
7.80833,146
7.81667,145
7.825,143
7.83333,140
7.84167,138
7.85,138
7.85833,138
7.86667,137
7.875,137
7.88333,136
7.89167,135
7.9,134
7.90833,132
7.91667,131
7.925,130
7.93333,129
7.94167,128
7.95,128
7.95833,126
7.96667,124
7.975,124
7.98333,123
7.99167,123
8.0,122
8.00833,120
8.01667,120
8.025,119
8.03333,119
8.04167,119
8.05,119
8.05833,120
8.06667,119
8.075,118
8.08333,117
8.09167,116
8.1,116
8.10833,116
8.11667,116
8.125,115
8.13333,115
8.14167,116
8.15,117
8.15833,116
8.16667,116
8.175,117
8.18333,118
8.19167,118
8.2,117
8.20833,116
8.21667,115
8.225,115
8.23333,115
8.24167,116
8.25,116
8.25833,115
8.26667,115
8.275,115
8.28333,114
8.29167,113
8.3,113
8.30833,113
8.31667,111
8.325,110
8.33333,108
8.34167,106
8.35,104
8.35833,100
8.36667,98
8.375,96
8.38333,95
8.39167,94
8.4,92
8.40833,92
8.41667,91
8.425,90
8.43333,88
8.44167,86
8.45,85
8.45833,85
8.46667,84
8.475,83
8.48333,82
8.49167,81
8.5,81
8.50833,81
8.51667,81
8.525,80
8.53333,79
8.54167,78
8.55,77
8.55833,76
8.56667,75
8.575,73
8.58333,72
8.59167,71
8.6,72
8.60833,72
8.61667,70
8.625,69
8.63333,68
8.64167,67
8.65,65
8.65833,64
8.66667,62
8.675,62
8.68333,62
8.69167,61
8.7,59
8.70833,58
8.71667,58
8.725,59
8.73333,58
8.74167,58
8.75,58
8.75833,58
8.76667,58
8.775,57
8.78333,57
8.79167,56
8.8,55
8.80833,54
8.81667,54
8.825,54
8.83333,55
8.84167,55
8.85,56
8.85833,56
8.86667,58
8.875,59
8.88333,61
8.89167,63
8.9,65
8.90833,67
8.91667,68
8.925,69
8.93333,71
8.94167,73
8.95,75
8.95833,77
8.96667,78
8.975,78
8.98333,78
8.99167,80
9.0,80
9.00833,79
9.01667,77
9.025,76
9.03333,74
9.04167,72
9.05,71
9.05833,70
9.06667,68
9.075,66
9.08333,65
9.09167,64
9.1,63
9.10833,65
9.11667,68
9.125,73
9.13333,80
9.14167,90
9.15,102
9.15833,118
9.16667,137
9.175,163
9.18333,195
9.19167,234
9.2,280
9.20833,335
9.21667,399
9.225,471
9.23333,552
9.24167,642
9.25,740
9.25833,845
9.26667,956
9.275,1070
9.28333,1185
9.29167,1298
9.3,1406
9.30833,1506
9.31667,1597
9.325,1677
9.33333,1744
9.34167,1793
9.35,1825
9.35833,1838
9.36667,1832
9.375,1808
9.38333,1768
9.39167,1712
9.4,1644
9.40833,1565
9.41667,1476
9.425,1380
9.43333,1279
9.44167,1175
9.45,1071
9.45833,968
9.46667,870
9.475,776
9.48333,688
9.49167,607
9.5,532
9.50833,464
9.51667,403
9.525,350
9.53333,302
9.54167,260
9.55,222
9.55833,188
9.56667,160
9.575,136
9.58333,116
9.59167,99
9.6,84
9.60833,73
9.61667,64
9.625,55
9.63333,47
9.64167,41
9.65,35
9.65833,30
9.66667,27
9.675,25
9.68333,23
9.69167,21
9.7,19
9.70833,18
9.71667,17
9.725,17
9.73333,17
9.74167,18
9.75,20
9.75833,22
9.76667,24
9.775,26
9.78333,28
9.79167,31
9.8,36
9.80833,41
9.81667,45
9.825,50
9.83333,54
9.84167,57
9.85,61
9.85833,64
9.86667,68
9.875,70
9.88333,73
9.89167,75
9.9,76
9.90833,76
9.91667,75
9.925,73
9.93333,71
9.94167,68
9.95,65
9.95833,61
9.96667,56
9.975,51
9.98333,47
9.99167,42
10.0,38
