R.Time (min),Intensity
0.0,-16
0.00833,-16
0.01667,0
0.025,-1
0.03333,-2
0.04167,-3
0.05,-3
0.05833,-3
0.06667,-3
0.075,-3
0.08333,-4
0.09167,-4
0.1,-4
0.10833,-4
0.11667,-5
0.125,-6
0.13333,-7
0.14167,-8
0.15,-8
0.15833,-7
0.16667,-8
0.175,-8
0.18333,-9
0.19167,-9
0.2,-9
0.20833,-10
0.21667,-11
0.225,-11
0.23333,-11
0.24167,-10
0.25,-11
0.25833,-11
0.26667,-12
0.275,-12
0.28333,-13
0.29167,-13
0.3,-13
0.30833,-14
0.31667,-14
0.325,-15
0.33333,-16
0.34167,-15
0.35,-15
0.35833,-16
0.36667,-17
0.375,-17
0.38333,-18
0.39167,-19
0.4,-19
0.40833,-18
0.41667,-18
0.425,-19
0.43333,-20
0.44167,-21
0.45,-21
0.45833,-22
0.46667,-21
0.475,-21
0.48333,-22
0.49167,-22
0.5,-23
0.50833,-22
0.51667,-22
0.525,-22
0.53333,-21
0.54167,-22
0.55,-23
0.55833,-24
0.56667,-26
0.575,-26
0.58333,-26
0.59167,-26
0.6,-28
0.60833,-28
0.61667,-28
0.625,-27
0.63333,-26
0.64167,-25
0.65,-24
0.65833,-23
0.66667,-23
0.675,-24
0.68333,-25
0.69167,-25
0.7,-25
0.70833,-25
0.71667,-24
0.725,-23
0.73333,-22
0.74167,-19
0.75,-16
0.75833,-14
0.76667,-11
0.775,-8
0.78333,-6
0.79167,-3
0.8,2
0.80833,7
0.81667,12
0.825,18
0.83333,24
0.84167,29
0.85,35
0.85833,42
0.86667,49
0.875,55
0.88333,61
0.89167,66
0.9,70
0.90833,75
0.91667,78
0.925,80
0.93333,81
0.94167,81
0.95,82
0.95833,81
0.96667,79
0.975,77
0.98333,75
0.99167,71
1.0,66
1.00833,60
1.01667,55
1.025,50
1.03333,45
1.04167,40
1.05,34
1.05833,28
1.06667,21
1.075,15
1.08333,10
1.09167,5
1.1,0
1.10833,-5
1.11667,-10
1.125,-14
1.13333,-18
1.14167,-21
1.15,-24
1.15833,-26
1.16667,-27
1.175,-30
1.18333,-33
1.19167,-35
1.2,-37
1.20833,-38
1.21667,-39
1.225,-40
1.23333,-40
1.24167,-39
1.25,-39
1.25833,-39
1.26667,-40
1.275,-41
1.28333,-42
1.29167,-42
1.3,-40
1.30833,-40
1.31667,-41
1.325,-42
1.33333,-42
1.34167,-43
1.35,-43
1.35833,-43
1.36667,-43
1.375,-44
1.38333,-44
1.39167,-44
1.4,-44
1.40833,-44
1.41667,-44
1.425,-43
1.43333,-43
1.44167,-44
1.45,-44
1.45833,-46
1.46667,-47
1.475,-47
1.48333,-48
1.49167,-47
1.5,-47
1.50833,-47
1.51667,-46
1.525,-46
1.53333,-46
1.54167,-46
1.55,-47
1.55833,-48
1.56667,-48
1.575,-48
1.58333,-47
1.59167,-45
1.6,-44
1.60833,-42
1.61667,-41
1.625,-39
1.63333,-37
1.64167,-32
1.65,-26
1.65833,-19
1.66667,-12
1.675,-2
1.68333,8
1.69167,20
1.7,34
1.70833,50
1.71667,68
1.725,88
1.73333,111
1.74167,134
1.75,159
1.75833,185
1.76667,212
1.775,238
1.78333,266
1.79167,293
1.8,318
1.80833,342
1.81667,363
1.825,379
1.83333,394
1.84167,405
1.85,413
1.85833,417
1.86667,417
1.875,413
1.88333,404
1.89167,392
1.9,377
1.90833,359
1.91667,339
1.925,317
1.93333,293
1.94167,268
1.95,243
1.95833,218
1.96667,192
1.975,168
1.98333,144
1.99167,122
2.0,101
2.00833,81
2.01667,63
2.025,47
2.03333,32
2.04167,19
2.05,6
2.05833,-5
2.06667,-14
2.075,-22
2.08333,-29
2.09167,-34
2.1,-38
2.10833,-43
2.11667,-45
2.125,-48
2.13333,-49
2.14167,-51
2.15,-52
2.15833,-52
2.16667,-53
2.175,-54
2.18333,-55
2.19167,-55
2.2,-56
2.20833,-57
2.21667,-58
2.225,-58
2.23333,-57
2.24167,-57
2.25,-57
2.25833,-56
2.26667,-57
2.275,-58
2.28333,-59
2.29167,-60
2.3,-59
2.30833,-59
2.31667,-59
2.325,-60
2.33333,-60
2.34167,-61
2.35,-62
2.35833,-62
2.36667,-63
2.375,-62
2.38333,-62
2.39167,-62
2.4,-62
2.40833,-62
2.41667,-63
2.425,-63
2.43333,-62
2.44167,-61
2.45,-61
2.45833,-61
2.46667,-61
2.475,-62
2.48333,-62
2.49167,-62
2.5,-63
2.50833,-64
2.51667,-63
2.525,-63
2.53333,-64
2.54167,-64
2.55,-64
2.55833,-65
2.56667,-64
2.575,-63
2.58333,-63
2.59167,-63
2.6,-64
2.60833,-64
2.61667,-65
2.625,-65
2.63333,-65
2.64167,-65
2.65,-65
2.65833,-65
2.66667,-65
2.675,-66
2.68333,-66
2.69167,-67
2.7,-67
2.70833,-67
2.71667,-67
2.725,-67
2.73333,-66
2.74167,-67
2.75,-68
2.75833,-69
2.76667,-69
2.775,-68
2.78333,-66
2.79167,-66
2.8,-66
2.80833,-67
2.81667,-68
2.825,-68
2.83333,-68
2.84167,-69
2.85,-69
2.85833,-69
2.86667,-68
2.875,-67
2.88333,-66
2.89167,-64
2.9,-62
2.90833,-58
2.91667,-54
2.925,-49
2.93333,-44
2.94167,-37
2.95,-28
2.95833,-19
2.96667,-10
2.975,-2
2.98333,6
2.99167,15
3.0,22
3.00833,28
3.01667,34
3.025,37
3.03333,41
3.04167,45
3.05,49
3.05833,53
3.06667,60
3.075,69
3.08333,84
3.09167,112
3.1,160
3.10833,242
3.11667,366
3.125,527
3.13333,705
3.14167,875
3.15,1013
3.15833,1106
3.16667,1147
3.175,1143
3.18333,1105
3.19167,1041
3.2,964
3.20833,880
3.21667,796
3.225,716
3.23333,643
3.24167,577
3.25,519
3.25833,469
3.26667,427
3.275,392
3.28333,366
3.29167,348
3.3,338
3.30833,338
3.31667,345
3.325,356
3.33333,368
3.34167,380
3.35,391
3.35833,403
3.36667,414
3.375,424
3.38333,430
3.39167,434
3.4,435
3.40833,431
3.41667,424
3.425,415
3.43333,406
3.44167,399
3.45,396
3.45833,399
3.46667,410
3.475,427
3.48333,450
3.49167,477
3.5,503
3.50833,526
3.51667,544
3.525,553
3.53333,554
3.54167,550
3.55,545
3.55833,541
3.56667,542
3.575,548
3.58333,558
3.59167,569
3.6,579
3.60833,584
3.61667,580
3.625,569
3.63333,552
3.64167,531
3.65,510
3.65833,490
3.66667,473
3.675,461
3.68333,459
3.69167,492
3.7,653
3.70833,1267
3.71667,3279
3.725,8987
3.73333,23000
3.74167,52868
3.75,108357
3.75833,198586
3.76667,327523
3.775,490131
3.78333,671734
3.79167,851525
3.8,1008449
3.80833,1126584
3.81667,1198036
3.825,1222865
3.83333,1207031
3.84167,1159440
3.85,1089181
3.85833,1003735
3.86667,908550
3.875,807694
3.88333,704818
3.89167,603664
3.9,507921
3.90833,420696
3.91667,344044
3.925,278821
3.93333,224829
3.94167,181132
3.95,146384
3.95833,119105
3.96667,97856
3.975,81356
3.98333,68521
3.99167,58482
4.0,50557
4.00833,44229
4.01667,39107
4.025,34904
4.03333,31412
4.04167,28476
4.05,25986
4.05833,23876
4.06667,22123
4.075,20787
4.08333,20077
4.09167,20492
4.1,23031
4.10833,29422
4.11667,42217
4.125,64555
4.13333,99408
4.14167,148403
4.15,210646
4.15833,282131
4.16667,356149
4.175,424637
4.18333,479990
4.19167,516677
4.2,532160
4.20833,526963
4.21667,504043
4.225,467797
4.23333,423060
4.24167,374318
4.25,325230
4.25833,278452
4.26667,235670
4.275,197754
4.28333,164966
4.29167,137154
4.3,113917
4.30833,94727
4.31667,79019
4.325,66241
4.33333,55885
4.34167,47505
4.35,40722
4.35833,35220
4.36667,30740
4.375,27074
4.38333,24053
4.39167,21545
4.4,19448
4.40833,17678
4.41667,16174
4.425,14883
4.43333,13765
4.44167,12791
4.45,11935
4.45833,11179
4.46667,10506
4.475,9903
4.48333,9359
4.49167,8867
4.5,8423
4.50833,8018
4.51667,7648
4.525,7309
4.53333,6996
4.54167,6706
4.55,6439
4.55833,6191
4.56667,5960
4.575,5743
4.58333,5540
4.59167,5351
4.6,5174
4.60833,5008
4.61667,4857
4.625,4719
4.63333,4598
4.64167,4498
4.65,4427
4.65833,4400
4.66667,4443
4.675,4602
4.68333,4949
4.69167,5596
4.7,6708
4.70833,8510
4.71667,11286
4.725,15368
4.73333,21094
4.74167,28755
4.75,38518
4.75833,50345
4.76667,63922
4.775,78623
4.78333,93526
4.79167,107501
4.8,119370
4.80833,128091
4.81667,132934
4.825,133589
4.83333,130194
4.84167,123271
4.85,113616
4.85833,102150
4.86667,89789
4.875,77333
4.88333,65415
4.89167,54473
4.9,44763
4.90833,36387
4.91667,29331
4.925,23505
4.93333,18778
4.94167,14998
4.95,12013
4.95833,9680
4.96667,7873
4.975,6484
4.98333,5422
4.99167,4610
5.0,3991
5.00833,3519
5.01667,3156
5.025,2873
5.03333,2650
5.04167,2472
5.05,2326
5.05833,2206
5.06667,2104
5.075,2018
5.08333,1942
5.09167,1875
5.1,1816
5.10833,1764
5.11667,1716
5.125,1674
5.13333,1634
5.14167,1598
5.15,1565
5.15833,1536
5.16667,1509
5.175,1483
5.18333,1458
5.19167,1433
5.2,1409
5.20833,1386
5.21667,1363
5.225,1340
5.23333,1318
5.24167,1297
5.25,1279
5.25833,1262
5.26667,1248
5.275,1240
5.28333,1239
5.29167,1248
5.3,1272
5.30833,1320
5.31667,1409
5.325,1565
5.33333,1835
5.34167,2294
5.35,3083
5.35833,4432
5.36667,6718
5.375,10528
5.38333,16731
5.39167,26534
5.4,41485
5.40833,63387
5.41667,94092
5.425,135146
5.43333,187345
5.44167,250313
5.45,322219
5.45833,399772
5.46667,478517
5.475,553403
5.48333,619457
5.49167,672435
5.5,709292
5.50833,728435
5.51667,729726
5.525,714308
5.53333,684316
5.54167,642540
5.55,592090
5.55833,536100
5.56667,477495
5.575,418828
5.58333,362175
5.59167,309095
5.6,260640
5.60833,217403
5.61667,179589
5.625,147101
5.63333,119630
5.64167,96722
5.65,77855
5.65833,62483
5.66667,50075
5.675,40142
5.68333,32243
5.69167,25997
5.7,21078
5.70833,17217
5.71667,14191
5.725,11821
5.73333,9960
5.74167,8496
5.75,7338
5.75833,6416
5.76667,5678
5.775,5081
5.78333,4594
5.79167,4190
5.8,3851
5.80833,3563
5.81667,3316
5.825,3101
5.83333,2913
5.84167,2747
5.85,2599
5.85833,2466
5.86667,2348
5.875,2242
5.88333,2149
5.89167,2068
5.9,2000
5.90833,1945
5.91667,1898
5.925,1861
5.93333,1831
5.94167,1807
5.95,1786
5.95833,1766
5.96667,1743
5.975,1717
5.98333,1687
5.99167,1653
6.0,1613
6.00833,1571
6.01667,1524
6.025,1474
6.03333,1422
6.04167,1370
6.05,1319
6.05833,1268
6.06667,1222
6.075,1178
6.08333,1138
6.09167,1101
6.1,1067
6.10833,1036
6.11667,1007
6.125,980
6.13333,957
6.14167,935
6.15,914
6.15833,894
6.16667,874
6.175,856
6.18333,839
6.19167,823
6.2,806
6.20833,791
6.21667,778
6.225,765
6.23333,753
6.24167,741
6.25,729
6.25833,718
6.26667,707
6.275,696
6.28333,685
6.29167,675
6.3,665
6.30833,656
6.31667,648
6.325,640
6.33333,631
6.34167,623
6.35,615
6.35833,607
6.36667,600
6.375,593
6.38333,586
6.39167,578
6.4,570
6.40833,564
6.41667,559
6.425,554
6.43333,549
6.44167,546
6.45,543
6.45833,542
6.46667,542
6.475,543
6.48333,545
6.49167,547
6.5,550
6.50833,552
6.51667,554
6.525,555
6.53333,558
6.54167,558
6.55,555
6.55833,550
6.56667,542
6.575,533
6.58333,524
6.59167,514
6.6,503
6.60833,492
6.61667,480
6.625,469
6.63333,457
6.64167,446
6.65,435
6.65833,426
6.66667,418
6.675,411
6.68333,405
6.69167,399
6.7,393
6.70833,388
6.71667,384
6.725,381
6.73333,378
6.74167,375
6.75,371
6.75833,370
6.76667,368
6.775,366
6.78333,364
6.79167,361
6.8,358
6.80833,356
6.81667,353
6.825,350
6.83333,349
6.84167,348
6.85,347
6.85833,347
6.86667,347
6.875,348
6.88333,349
6.89167,350
6.9,352
6.90833,354
6.91667,356
6.925,357
6.93333,359
6.94167,360
6.95,362
6.95833,365
6.96667,366
6.975,368
6.98333,370
6.99167,372
7.0,372
7.00833,373
7.01667,372
7.025,371
7.03333,369
7.04167,369
7.05,367
7.05833,365
7.06667,363
7.075,360
7.08333,356
7.09167,352
7.1,349
7.10833,345
7.11667,339
7.125,334
7.13333,328
7.14167,323
7.15,320
7.15833,315
7.16667,311
7.175,306
7.18333,302
7.19167,296
7.2,292
7.20833,287
7.21667,283
7.225,279
7.23333,275
7.24167,269
7.25,265
7.25833,260
7.26667,255
7.275,250
7.28333,246
7.29167,242
7.3,238
7.30833,234
7.31667,229
7.325,226
7.33333,223
7.34167,220
7.35,217
7.35833,214
7.36667,211
7.375,209
7.38333,207
7.39167,204
7.4,200
7.40833,197
7.41667,196
7.425,194
7.43333,192
7.44167,189
7.45,188
7.45833,187
7.46667,187
7.475,185
7.48333,182
7.49167,180
7.5,178
7.50833,177
7.51667,176
7.525,175
7.53333,173
7.54167,172
7.55,170
7.55833,170
7.56667,169
7.575,169
7.58333,168
7.59167,167
7.6,165
7.60833,164
7.61667,163
7.625,163
7.63333,162
7.64167,162
7.65,162
7.65833,162
7.66667,162
7.675,161
7.68333,160
7.69167,159
7.7,158
7.70833,157
7.71667,157
7.725,157
7.73333,156
7.74167,156
7.75,155
7.75833,154
7.76667,153
7.775,152
7.78333,151
7.79167,149
7.8,147
7.80833,146
7.81667,146
7.825,145
7.83333,145
7.84167,143
7.85,143
7.85833,141
7.86667,140
7.875,138
7.88333,136
7.89167,135
7.9,134
7.90833,133
7.91667,133
7.925,133
7.93333,131
7.94167,130
7.95,128
7.95833,127
7.96667,127
7.975,128
7.98333,128
7.99167,127
8.0,126
8.00833,125
8.01667,124
8.025,125
8.03333,124
8.04167,123
8.05,121
8.05833,120
8.06667,120
8.075,121
8.08333,122
8.09167,121
8.1,120
8.10833,119
8.11667,119
8.125,119
8.13333,119
8.14167,118
8.15,118
8.15833,118
8.16667,117
8.175,116
8.18333,116
8.19167,117
8.2,116
8.20833,116
8.21667,115
8.225,115
8.23333,115
8.24167,115
8.25,114
8.25833,113
8.26667,112
8.275,111
8.28333,110
8.29167,109
8.3,108
8.30833,107
8.31667,105
8.325,104
8.33333,102
8.34167,101
8.35,99
8.35833,96
8.36667,94
8.375,92
8.38333,91
8.39167,91
8.4,91
8.40833,90
8.41667,89
8.425,89
8.43333,90
8.44167,89
8.45,88
8.45833,88
8.46667,88
8.475,87
8.48333,87
8.49167,86
8.5,85
8.50833,85
8.51667,85
8.525,84
8.53333,83
8.54167,82
8.55,82
8.55833,81
8.56667,81
8.575,80
8.58333,79
8.59167,77
8.6,76
8.60833,74
8.61667,73
8.625,72
8.63333,71
8.64167,70
8.65,70
8.65833,69
8.66667,67
8.675,66
8.68333,66
8.69167,66
8.7,65
8.70833,64
8.71667,63
8.725,63
8.73333,61
8.74167,60
8.75,58
8.75833,57
8.76667,56
8.775,56
8.78333,56
8.79167,56
8.8,56
8.80833,54
8.81667,52
8.825,51
8.83333,51
8.84167,50
8.85,50
8.85833,50
8.86667,50
8.875,49
8.88333,49
8.89167,49
8.9,48
8.90833,47
8.91667,47
8.925,47
8.93333,46
8.94167,46
8.95,46
8.95833,46
8.96667,45
8.975,44
8.98333,42
8.99167,41
9.0,39
9.00833,38
9.01667,37
9.025,37
9.03333,37
9.04167,37
9.05,36
9.05833,35
9.06667,34
9.075,34
9.08333,33
9.09167,33
9.1,33
9.10833,33
9.11667,33
9.125,32
9.13333,32
9.14167,31
9.15,29
9.15833,29
9.16667,28
9.175,29
9.18333,29
9.19167,29
9.2,28
9.20833,27
9.21667,25
9.225,23
9.23333,23
9.24167,21
9.25,21
9.25833,19
9.26667,19
9.275,18
9.28333,19
9.29167,18
9.3,16
9.30833,16
9.31667,15
9.325,15
9.33333,15
9.34167,14
9.35,14
9.35833,14
9.36667,14
9.375,16
9.38333,17
9.39167,18
9.4,18
9.40833,19
9.41667,20
9.425,21
9.43333,20
9.44167,19
9.45,19
9.45833,18
9.46667,17
9.475,16
9.48333,15
9.49167,15
9.5,14
9.50833,13
9.51667,13
9.525,13
9.53333,12
9.54167,11
9.55,9
9.55833,8
9.56667,7
9.575,6
9.58333,6
9.59167,6
9.6,6
9.60833,5
9.61667,4
9.625,3
9.63333,3
9.64167,3
9.65,2
9.65833,1
9.66667,-1
9.675,-1
9.68333,-1
9.69167,-2
9.7,-2
9.70833,-2
9.71667,-2
9.725,-3
9.73333,-5
9.74167,-6
9.75,-6
9.75833,-6
9.76667,-6
9.775,-8
9.78333,-8
9.79167,-9
9.8,-10
9.80833,-11
9.81667,-11
9.825,-11
9.83333,-11
9.84167,-11
9.85,-9
9.85833,-8
9.86667,-9
9.875,-11
9.88333,-12
9.89167,-11
9.9,-11
9.90833,-11
9.91667,-10
9.925,-11
9.93333,-12
9.94167,-12
9.95,-11
9.95833,-11
9.96667,-11
9.975,-11
9.98333,-11
9.99167,-11
10.0,-11
