R.Time (min),Intensity
0.0,14
0.00833,14
0.01667,-9
0.025,-27
0.03333,-24
0.04167,-26
0.05,-24
0.05833,-36
0.06667,-11
0.075,8
0.08333,10
0.09167,-7
0.1,-66
0.10833,-106
0.11667,-95
0.125,-107
0.13333,-126
0.14167,-154
0.15,-185
0.15833,-192
0.16667,-168
0.175,-133
0.18333,-102
0.19167,-65
0.2,-43
0.20833,-19
0.21667,-15
0.225,5
0.23333,12
0.24167,1
0.25,-17
0.25833,-1
0.26667,10
0.275,8
0.28333,5
0.29167,-9
0.3,-1
0.30833,-18
0.31667,-38
0.325,-26
0.33333,-28
0.34167,-33
0.35,-29
0.35833,-13
0.36667,-3
0.375,4
0.38333,-28
0.39167,-32
0.4,-23
0.40833,-12
0.41667,-21
0.425,-23
0.43333,-18
0.44167,2
0.45,8
0.45833,12
0.46667,19
0.475,17
0.48333,25
0.49167,16
0.5,20
0.50833,12
0.51667,0
0.525,-24
0.53333,-34
0.54167,-43
0.55,-29
0.55833,-13
0.56667,-39
0.575,-46
0.58333,-55
0.59167,-73
0.6,-94
0.60833,-92
0.61667,-93
0.625,-98
0.63333,-86
0.64167,-95
0.65,-84
0.65833,-65
0.66667,-93
0.675,-101
0.68333,-96
0.69167,-88
0.7,-59
0.70833,-86
0.71667,-120
0.725,-117
0.73333,-106
0.74167,-104
0.75,-104
0.75833,-103
0.76667,-95
0.775,-53
0.78333,-37
0.79167,-61
0.8,-85
0.80833,-89
0.81667,-95
0.825,-87
0.83333,-66
0.84167,-73
0.85,-67
0.85833,-82
0.86667,-113
0.875,-128
0.88333,-111
0.89167,-97
0.9,-79
0.90833,-68
0.91667,-91
0.925,-96
0.93333,-120
0.94167,-124
0.95,-145
0.95833,-145
0.96667,-107
0.975,-78
0.98333,-80
0.99167,-85
1.0,-67
1.00833,-49
1.01667,-33
1.025,-21
1.03333,-21
1.04167,-8
1.05,-13
1.05833,-35
1.06667,-65
1.075,-59
1.08333,-44
1.09167,-60
1.1,-48
1.10833,-31
1.11667,-23
1.125,-26
1.13333,-32
1.14167,-16
1.15,16
1.15833,-17
1.16667,-43
1.175,-74
1.18333,-80
1.19167,-74
1.2,-71
1.20833,-88
1.21667,-85
1.225,-93
1.23333,-101
1.24167,-115
1.25,-102
1.25833,-87
1.26667,-60
1.275,-33
1.28333,-7
1.29167,-1
1.3,0
1.30833,4
1.31667,-6
1.325,-4
1.33333,13
1.34167,2
1.35,-16
1.35833,-14
1.36667,-2
1.375,-9
1.38333,3
1.39167,11
1.4,34
1.40833,43
1.41667,51
1.425,52
1.43333,57
1.44167,64
1.45,53
1.45833,42
1.46667,58
1.475,56
1.48333,52
1.49167,66
1.5,53
1.50833,68
1.51667,62
1.525,66
1.53333,49
1.54167,42
1.55,46
1.55833,30
1.56667,7
1.575,3
1.58333,8
1.59167,52
1.6,69
1.60833,80
1.61667,130
1.625,118
1.63333,91
1.64167,74
1.65,64
1.65833,54
1.66667,44
1.675,25
1.68333,10
1.69167,-1
1.7,1
1.70833,7
1.71667,7
1.725,-11
1.73333,-15
1.74167,-9
1.75,19
1.75833,47
1.76667,56
1.775,38
1.78333,24
1.79167,51
1.8,43
1.80833,52
1.81667,63
1.825,66
1.83333,88
1.84167,114
1.85,113
1.85833,98
1.86667,65
1.875,12
1.88333,-27
1.89167,-14
1.9,30
1.90833,77
1.91667,93
1.925,87
1.93333,76
1.94167,28
1.95,-33
1.95833,-47
1.96667,-26
1.975,-1
1.98333,19
1.99167,22
2.0,21
2.00833,45
2.01667,42
2.025,49
2.03333,68
2.04167,80
2.05,91
2.05833,61
2.06667,37
2.075,49
2.08333,52
2.09167,70
2.1,62
2.10833,86
2.11667,119
2.125,92
2.13333,57
2.14167,36
2.15,19
2.15833,4
2.16667,22
2.175,29
2.18333,63
2.19167,66
2.2,81
2.20833,97
2.21667,90
2.225,104
2.23333,109
2.24167,111
2.25,107
2.25833,91
2.26667,78
2.275,97
2.28333,127
2.29167,110
2.3,98
2.30833,86
2.31667,76
2.325,66
2.33333,68
2.34167,71
2.35,73
2.35833,46
2.36667,25
2.375,17
2.38333,22
2.39167,43
2.4,58
2.40833,68
2.41667,68
2.425,72
2.43333,77
2.44167,65
2.45,48
2.45833,36
2.46667,56
2.475,75
2.48333,75
2.49167,96
2.5,95
2.50833,92
2.51667,77
2.525,68
2.53333,55
2.54167,41
2.55,30
2.55833,41
2.56667,45
2.575,23
2.58333,10
2.59167,12
2.6,2
2.60833,11
2.61667,-6
2.625,-32
2.63333,-18
2.64167,6
2.65,27
2.65833,18
2.66667,15
2.675,27
2.68333,34
2.69167,39
2.7,34
2.70833,45
2.71667,55
2.725,63
2.73333,35
2.74167,7
2.75,-22
2.75833,-37
2.76667,-15
2.775,4
2.78333,18
2.79167,12
2.8,-22
2.80833,-1
2.81667,-9
2.825,-18
2.83333,20
2.84167,59
2.85,71
2.85833,66
2.86667,65
2.875,66
2.88333,40
2.89167,71
2.9,100
2.90833,105
2.91667,89
2.925,83
2.93333,97
2.94167,89
2.95,101
2.95833,122
2.96667,155
2.975,186
2.98333,187
2.99167,215
3.0,290
3.00833,388
3.01667,460
3.025,541
3.03333,651
3.04167,752
3.05,887
3.05833,1019
3.06667,1187
3.075,1408
3.08333,1838
3.09167,2572
3.1,3695
3.10833,5242
3.11667,7000
3.125,8615
3.13333,9801
3.14167,10447
3.15,10542
3.15833,10160
3.16667,9435
3.175,8527
3.18333,7509
3.19167,6485
3.2,5523
3.20833,4609
3.21667,3731
3.225,2856
3.23333,1794
3.24167,251
3.25,-2233
3.25833,-6139
3.26667,-11834
3.275,-19409
3.28333,-28549
3.29167,-38371
3.3,-47163
3.30833,-52821
3.31667,-53704
3.325,-49210
3.33333,-39590
3.34167,-25310
3.35,-6426
3.35833,17069
3.36667,44432
3.375,73591
3.38333,101353
3.39167,124090
3.4,138820
3.40833,143661
3.41667,138164
3.425,123016
3.43333,100229
3.44167,73148
3.45,46038
3.45833,23061
3.46667,7191
3.475,-409
3.48333,-515
3.49167,4734
3.5,12743
3.50833,21016
3.51667,27842
3.525,32284
3.53333,34104
3.54167,33656
3.55,31659
3.55833,28842
3.56667,25747
3.575,22822
3.58333,20290
3.59167,18269
3.6,16794
3.60833,15886
3.61667,15581
3.625,15791
3.63333,16470
3.64167,17464
3.65,18603
3.65833,19710
3.66667,20511
3.675,20874
3.68333,20694
3.69167,19935
3.7,18730
3.70833,17181
3.71667,15553
3.725,14060
3.73333,13139
3.74167,13537
3.75,16687
3.75833,24948
3.76667,41199
3.775,68283
3.78333,108226
3.79167,161945
3.8,229305
3.80833,309710
3.81667,402086
3.825,504717
3.83333,615219
3.84167,731348
3.85,851741
3.85833,974066
3.86667,1090819
3.875,1189422
3.88333,1251966
3.89167,1264672
3.9,1222519
3.90833,1130932
3.91667,1002730
3.925,854565
3.93333,703124
3.94167,561616
3.95,438375
3.95833,336641
3.96667,256160
3.975,194493
3.98333,148391
3.99167,114465
4.0,89756
4.00833,71766
4.01667,58575
4.025,48825
4.03333,41509
4.04167,35918
4.05,31517
4.05833,27972
4.06667,25113
4.075,22850
4.08333,21211
4.09167,20581
4.1,21840
4.10833,26874
4.11667,39005
4.125,63202
4.13333,105201
4.14167,169211
4.15,255390
4.15833,358500
4.16667,468343
4.175,573147
4.18333,661962
4.19167,727041
4.2,764185
4.20833,772975
4.21667,755945
4.225,717344
4.23333,662642
4.24167,597649
4.25,527633
4.25833,457190
4.26667,389998
4.275,328402
4.28333,273699
4.29167,226340
4.3,186206
4.30833,152805
4.31667,125364
4.325,103013
4.33333,84956
4.34167,70445
4.35,58849
4.35833,49595
4.36667,42188
4.375,36246
4.38333,31447
4.39167,27548
4.4,24303
4.40833,21606
4.41667,19366
4.425,17476
4.43333,15887
4.44167,14545
4.45,13444
4.45833,12441
4.46667,11538
4.475,10744
4.48333,10056
4.49167,9450
4.5,8880
4.50833,8352
4.51667,7882
4.525,7491
4.53333,7153
4.54167,6841
4.55,6518
4.55833,6199
4.56667,5912
4.575,5679
4.58333,5465
4.59167,5271
4.6,5105
4.60833,4934
4.61667,4729
4.625,4477
4.63333,4196
4.64167,3823
4.65,3315
4.65833,2567
4.66667,1569
4.675,296
4.68333,-1170
4.69167,-2682
4.7,-4013
4.70833,-4829
4.71667,-4615
4.725,-2773
4.73333,1368
4.74167,8411
4.75,18881
4.75833,33010
4.76667,50509
4.775,70634
4.78333,92237
4.79167,113768
4.8,133783
4.80833,150940
4.81667,164207
4.825,172894
4.83333,176523
4.84167,175008
4.85,168658
4.85833,158137
4.86667,144416
4.875,128652
4.88333,112002
4.89167,95477
4.9,79839
4.90833,65647
4.91667,53158
4.925,42452
4.93333,33471
4.94167,26092
4.95,20189
4.95833,15532
4.96667,11910
4.975,9108
4.98333,6957
4.99167,5337
5.0,4117
5.00833,3194
5.01667,2528
5.025,2077
5.03333,1729
5.04167,1479
5.05,1333
5.05833,1241
5.06667,1142
5.075,1066
5.08333,984
5.09167,936
5.1,894
5.10833,820
5.11667,746
5.125,729
5.13333,717
5.14167,707
5.15,687
5.15833,682
5.16667,686
5.175,688
5.18333,716
5.19167,739
5.2,770
5.20833,778
5.21667,748
5.225,712
5.23333,693
5.24167,732
5.25,762
5.25833,755
5.26667,761
5.275,757
5.28333,767
5.29167,834
5.3,958
5.30833,1151
5.31667,1499
5.325,2085
5.33333,3093
5.34167,4824
5.35,7855
5.35833,13033
5.36667,21762
5.375,36063
5.38333,58632
5.39167,92574
5.4,140643
5.40833,204506
5.41667,283715
5.425,375145
5.43333,473654
5.44167,572691
5.45,665939
5.45833,748160
5.46667,815505
5.475,865939
5.48333,898818
5.49167,914832
5.5,914954
5.50833,900920
5.51667,874815
5.525,838476
5.53333,793683
5.54167,742577
5.55,686616
5.55833,627343
5.56667,566499
5.575,505645
5.58333,446120
5.59167,389192
5.6,335778
5.60833,286631
5.61667,242261
5.625,202883
5.63333,168507
5.64167,138910
5.65,113857
5.65833,92909
5.66667,75571
5.675,61330
5.68333,49742
5.69167,40422
5.7,32959
5.70833,27016
5.71667,22271
5.725,18492
5.73333,15455
5.74167,13055
5.75,11101
5.75833,9505
5.76667,8186
5.775,7120
5.78333,6255
5.79167,5544
5.8,4945
5.80833,4447
5.81667,4016
5.825,3635
5.83333,3310
5.84167,3045
5.85,2796
5.85833,2585
5.86667,2376
5.875,2214
5.88333,2099
5.89167,2002
5.9,1907
5.90833,1845
5.91667,1775
5.925,1739
5.93333,1710
5.94167,1720
5.95,1763
5.95833,1807
5.96667,1831
5.975,1823
5.98333,1801
5.99167,1751
6.0,1713
6.00833,1647
6.01667,1616
6.025,1582
6.03333,1543
6.04167,1457
6.05,1376
6.05833,1291
6.06667,1253
6.075,1205
6.08333,1139
6.09167,1057
6.1,987
6.10833,944
6.11667,929
6.125,896
6.13333,830
6.14167,771
6.15,740
6.15833,697
6.16667,656
6.175,621
6.18333,625
6.19167,620
6.2,612
6.20833,574
6.21667,542
6.225,531
6.23333,515
6.24167,523
6.25,516
6.25833,511
6.26667,510
6.275,516
6.28333,528
6.29167,505
6.3,463
6.30833,412
6.31667,380
6.325,384
6.33333,378
6.34167,408
6.35,439
6.35833,441
6.36667,427
6.375,426
6.38333,429
6.39167,454
6.4,434
6.40833,418
6.41667,439
6.425,410
6.43333,378
6.44167,347
6.45,339
6.45833,375
6.46667,418
6.475,455
6.48333,477
6.49167,507
6.5,518
6.50833,522
6.51667,516
6.525,517
6.53333,518
6.54167,520
6.55,511
6.55833,487
6.56667,455
6.575,415
6.58333,394
6.59167,361
6.6,313
6.60833,289
6.61667,309
6.625,325
6.63333,328
6.64167,305
6.65,275
6.65833,286
6.66667,283
6.675,280
6.68333,263
6.69167,228
6.7,234
6.70833,257
6.71667,240
6.725,229
6.73333,249
6.74167,271
6.75,280
6.75833,254
6.76667,235
6.775,259
6.78333,272
6.79167,278
6.8,280
6.80833,275
6.81667,280
6.825,265
6.83333,260
6.84167,286
6.85,287
6.85833,262
6.86667,255
6.875,245
6.88333,222
6.89167,237
6.9,233
6.90833,224
6.91667,223
6.925,233
6.93333,247
6.94167,260
6.95,264
6.95833,252
6.96667,232
6.975,236
6.98333,214
6.99167,185
7.0,150
7.00833,168
7.01667,192
7.025,170
7.03333,189
7.04167,219
7.05,225
7.05833,220
7.06667,204
7.075,184
7.08333,179
7.09167,170
7.1,152
7.10833,131
7.11667,97
7.125,75
7.13333,74
7.14167,90
7.15,115
7.15833,142
7.16667,127
7.175,94
7.18333,99
7.19167,122
7.2,145
7.20833,121
7.21667,86
7.225,80
7.23333,78
7.24167,72
7.25,62
7.25833,71
7.26667,80
7.275,62
7.28333,52
7.29167,49
7.3,49
7.30833,52
7.31667,42
7.325,30
7.33333,21
7.34167,9
7.35,8
7.35833,47
7.36667,97
7.375,101
7.38333,40
7.39167,10
7.4,9
7.40833,30
7.41667,36
7.425,48
7.43333,34
7.44167,-4
7.45,-24
7.45833,-17
7.46667,-36
7.475,-33
7.48333,-3
7.49167,29
7.5,57
7.50833,48
7.51667,7
7.525,-28
7.53333,-32
7.54167,-38
7.55,-33
7.55833,-25
7.56667,9
7.575,16
7.58333,1
7.59167,0
7.6,5
7.60833,-22
7.61667,-42
7.625,-56
7.63333,-43
7.64167,-31
7.65,-20
7.65833,-19
7.66667,-49
7.675,-69
7.68333,-88
7.69167,-105
7.7,-102
7.70833,-83
7.71667,-67
7.725,-65
7.73333,-48
7.74167,-63
7.75,-34
7.75833,-21
7.76667,-51
7.775,-75
7.78333,-77
7.79167,-89
7.8,-120
7.80833,-128
7.81667,-94
7.825,-73
7.83333,-89
7.84167,-106
7.85,-78
7.85833,-48
7.86667,-21
7.875,-32
7.88333,-94
7.89167,-128
7.9,-120
7.90833,-117
7.91667,-141
7.925,-136
7.93333,-121
7.94167,-90
7.95,-60
7.95833,-50
7.96667,-66
7.975,-90
7.98333,-93
7.99167,-98
8.0,-107
8.00833,-85
8.01667,-75
8.025,-52
8.03333,-54
8.04167,-76
8.05,-96
8.05833,-66
8.06667,-16
8.075,-24
8.08333,-45
8.09167,-69
8.1,-94
8.10833,-101
8.11667,-78
8.125,-79
8.13333,-70
8.14167,-33
8.15,-1
8.15833,6
8.16667,3
8.175,10
8.18333,-9
8.19167,-8
8.2,-10
8.20833,-15
8.21667,-8
8.225,3
8.23333,12
8.24167,33
8.25,45
8.25833,41
8.26667,57
8.275,69
8.28333,60
8.29167,30
8.3,-6
8.30833,-25
8.31667,0
8.325,24
8.33333,40
8.34167,47
8.35,14
8.35833,-14
8.36667,-22
8.375,1
8.38333,-2
8.39167,-36
8.4,-45
8.40833,-29
8.41667,-10
8.425,4
8.43333,9
8.44167,15
8.45,33
8.45833,36
8.46667,31
8.475,22
8.48333,35
8.49167,51
8.5,64
8.50833,36
8.51667,10
8.525,-15
8.53333,7
8.54167,14
8.55,3
8.55833,-22
8.56667,-17
8.575,4
8.58333,34
8.59167,46
8.6,73
8.60833,72
8.61667,53
8.625,37
8.63333,41
8.64167,19
8.65,3
8.65833,6
8.66667,-5
8.675,-34
8.68333,-44
8.69167,-46
8.7,-58
8.70833,-56
8.71667,-63
8.725,-53
8.73333,-45
8.74167,-35
8.75,-30
8.75833,-41
8.76667,-47
8.775,-80
8.78333,-92
8.79167,-68
8.8,-87
8.80833,-91
8.81667,-78
8.825,-79
8.83333,-70
8.84167,-48
8.85,-32
8.85833,-15
8.86667,-5
8.875,-21
8.88333,-56
8.89167,-55
8.9,-77
8.90833,-86
8.91667,-66
8.925,-27
8.93333,-37
8.94167,-75
8.95,-79
8.95833,-54
8.96667,-42
8.975,-59
8.98333,-50
8.99167,-36
9.0,-37
9.00833,-26
9.01667,-32
9.025,-31
9.03333,-48
9.04167,-25
9.05,32
9.05833,79
9.06667,84
9.075,43
9.08333,11
9.09167,-2
9.1,11
9.10833,9
9.11667,1
9.125,-15
9.13333,2
9.14167,39
9.15,30
9.15833,23
9.16667,17
9.175,44
9.18333,68
9.19167,88
9.2,86
9.20833,60
9.21667,57
9.225,70
9.23333,82
9.24167,81
9.25,81
9.25833,74
9.26667,66
9.275,67
9.28333,59
9.29167,62
9.3,86
9.30833,96
9.31667,108
9.325,128
9.33333,173
9.34167,210
9.35,224
9.35833,204
9.36667,202
9.375,235
9.38333,282
9.39167,287
9.4,276
9.40833,260
9.41667,270
9.425,273
9.43333,282
9.44167,303
9.45,296
9.45833,315
9.46667,308
9.475,290
9.48333,287
9.49167,302
9.5,322
9.50833,346
9.51667,364
9.525,363
9.53333,349
9.54167,354
9.55,344
9.55833,348
9.56667,364
9.575,389
9.58333,367
9.59167,334
9.6,321
9.60833,301
9.61667,289
9.625,291
9.63333,263
9.64167,248
9.65,223
9.65833,238
9.66667,242
9.675,230
9.68333,228
9.69167,236
9.7,249
9.70833,253
9.71667,252
9.725,246
9.73333,224
9.74167,202
9.75,215
9.75833,217
9.76667,216
9.775,195
9.78333,154
9.79167,123
9.8,99
9.80833,73
9.81667,44
9.825,61
9.83333,128
9.84167,178
9.85,194
9.85833,206
9.86667,205
9.875,169
9.88333,126
9.89167,145
9.9,156
9.90833,125
9.91667,103
9.925,109
9.93333,107
9.94167,68
9.95,63
9.95833,44
9.96667,36
9.975,34
9.98333,30
9.99167,20
10.0,31
10.00833,30
10.01667,12
10.025,9
10.03333,9
10.04167,20
10.05,30
10.05833,2
10.06667,-14
10.075,-9
10.08333,-13
10.09167,9
10.1,23
10.10833,40
10.11667,48
10.125,57
10.13333,61
10.14167,49
10.15,31
10.15833,64
10.16667,83
10.175,64
10.18333,20
10.19167,28
10.2,49
10.20833,45
10.21667,27
10.225,36
10.23333,22
10.24167,31
10.25,22
10.25833,17
10.26667,-5
10.275,15
10.28333,47
10.29167,42
10.3,2
10.30833,1
10.31667,-5
10.325,-16
10.33333,0
10.34167,-9
10.35,-43
10.35833,-61
10.36667,-77
10.375,-102
10.38333,-108
10.39167,-103
10.4,-89
10.40833,-87
10.41667,-142
10.425,-158
10.43333,-166
10.44167,-182
10.45,-168
10.45833,-149
10.46667,-148
10.475,-171
10.48333,-195
10.49167,-197
10.5,-192
10.50833,-161
10.51667,-163
10.525,-212
10.53333,-232
10.54167,-224
10.55,-210
10.55833,-212
10.56667,-259
10.575,-316
10.58333,-324
10.59167,-348
10.6,-363
10.60833,-359
10.61667,-321
10.625,-288
10.63333,-281
10.64167,-297
10.65,-298
10.65833,-287
10.66667,-279
10.675,-288
10.68333,-310
10.69167,-328
10.7,-368
10.70833,-400
10.71667,-395
10.725,-366
10.73333,-344
10.74167,-352
10.75,-345
10.75833,-338
10.76667,-343
10.775,-377
10.78333,-384
10.79167,-335
10.8,-312
10.80833,-326
10.81667,-354
10.825,-360
10.83333,-343
10.84167,-336
10.85,-332
10.85833,-333
10.86667,-329
10.875,-326
10.88333,-352
10.89167,-361
10.9,-397
10.90833,-405
10.91667,-399
10.925,-387
10.93333,-395
10.94167,-368
10.95,-355
10.95833,-373
10.96667,-400
10.975,-392
10.98333,-342
10.99167,-325
11.0,-349
11.00833,-371
11.01667,-383
11.025,-374
11.03333,-347
11.04167,-338
11.05,-323
11.05833,-296
11.06667,-275
11.075,-279
11.08333,-256
11.09167,-248
11.1,-277
11.10833,-307
11.11667,-341
11.125,-360
11.13333,-375
11.14167,-391
11.15,-379
11.15833,-358
11.16667,-362
11.175,-351
11.18333,-319
11.19167,-287
11.2,-274
11.20833,-292
11.21667,-328
11.225,-371
11.23333,-406
11.24167,-423
11.25,-414
11.25833,-416
11.26667,-384
11.275,-396
11.28333,-403
11.29167,-395
11.3,-384
11.30833,-380
11.31667,-368
11.325,-380
11.33333,-409
11.34167,-416
11.35,-433
11.35833,-459
11.36667,-433
11.375,-422
11.38333,-422
11.39167,-394
11.4,-381
11.40833,-377
11.41667,-364
11.425,-343
11.43333,-299
11.44167,-270
11.45,-250
11.45833,-240
11.46667,-248
11.475,-250
11.48333,-261
11.49167,-278
11.5,-290
11.50833,-319
11.51667,-342
11.525,-364
11.53333,-360
11.54167,-350
11.55,-342
11.55833,-336
11.56667,-363
11.575,-383
11.58333,-413
11.59167,-427
11.6,-399
11.60833,-373
11.61667,-327
11.625,-295
11.63333,-287
11.64167,-306
11.65,-330
11.65833,-309
11.66667,-272
11.675,-266
11.68333,-240
11.69167,-216
11.7,-228
11.70833,-256
11.71667,-285
11.725,-305
11.73333,-280
11.74167,-253
11.75,-226
11.75833,-217
11.76667,-216
11.775,-213
11.78333,-232
11.79167,-264
11.8,-297
11.80833,-313
11.81667,-288
11.825,-251
11.83333,-208
11.84167,-176
11.85,-161
11.85833,-149
11.86667,-141
11.875,-109
11.88333,-63
11.89167,-23
11.9,30
11.90833,127
11.91667,232
11.925,350
11.93333,516
11.94167,685
11.95,862
11.95833,1105
11.96667,1441
11.975,1936
11.98333,2549
11.99167,3277
12.0,4112
12.00833,5103
12.01667,6321
12.025,7807
12.03333,9576
12.04167,11641
12.05,14054
12.05833,16869
12.06667,20074
12.075,23650
12.08333,27571
12.09167,31882
12.1,36529
12.10833,41481
12.11667,46628
12.125,51888
12.13333,57157
12.14167,62346
12.15,67329
12.15833,71991
12.16667,76239
12.175,80012
12.18333,83210
12.19167,85775
12.2,87612
12.20833,88709
12.21667,89068
12.225,88686
12.23333,87647
12.24167,85962
12.25,83644
12.25833,80778
12.26667,77457
12.275,73760
12.28333,69754
12.29167,65517
12.3,61089
12.30833,56586
12.31667,52070
12.325,47588
12.33333,43194
12.34167,38998
12.35,34987
12.35833,31204
12.36667,27664
12.375,24371
12.38333,21346
12.39167,18588
12.4,16126
12.40833,13923
12.41667,11937
12.425,10176
12.43333,8631
12.44167,7306
12.45,6148
12.45833,5136
12.46667,4298
12.475,3593
12.48333,2979
12.49167,2461
12.5,2011
12.50833,1663
12.51667,1371
12.525,1134
12.53333,963
12.54167,800
12.55,673
12.55833,572
12.56667,468
12.575,364
12.58333,275
12.59167,211
12.6,184
12.60833,162
12.61667,104
12.625,58
12.63333,32
12.64167,2
12.65,-10
12.65833,-64
12.66667,-116
12.675,-118
12.68333,-127
12.69167,-156
12.7,-147
12.70833,-138
12.71667,-139
12.725,-137
12.73333,-142
12.74167,-170
12.75,-163
12.75833,-160
12.76667,-177
12.775,-190
12.78333,-204
12.79167,-184
12.8,-161
12.80833,-133
12.81667,-98
12.825,-79
12.83333,-104
12.84167,-120
12.85,-129
12.85833,-140
12.86667,-164
12.875,-177
12.88333,-145
12.89167,-98
12.9,-98
12.90833,-120
12.91667,-161
12.925,-183
12.93333,-201
12.94167,-232
12.95,-266
12.95833,-271
12.96667,-249
12.975,-226
12.98333,-210
12.99167,-221
13.0,-241
13.00833,-246
13.01667,-243
13.025,-245
13.03333,-245
13.04167,-233
13.05,-237
13.05833,-243
13.06667,-262
13.075,-265
13.08333,-264
13.09167,-248
13.1,-223
13.10833,-203
13.11667,-189
13.125,-160
13.13333,-141
13.14167,-131
13.15,-133
13.15833,-119
13.16667,-115
13.175,-137
13.18333,-164
13.19167,-177
13.2,-151
13.20833,-145
13.21667,-186
13.225,-201
13.23333,-168
13.24167,-154
13.25,-135
13.25833,-138
13.26667,-158
13.275,-175
13.28333,-176
13.29167,-161
13.3,-159
13.30833,-175
13.31667,-172
13.325,-188
13.33333,-193
13.34167,-187
13.35,-199
13.35833,-201
13.36667,-190
13.375,-196
13.38333,-219
13.39167,-206
13.4,-213
13.40833,-227
13.41667,-180
13.425,-115
13.43333,-99
13.44167,-85
13.45,-49
13.45833,-32
13.46667,-29
13.475,-31
13.48333,-40
13.49167,-62
13.5,-74
13.50833,-57
13.51667,-38
13.525,-15
13.53333,31
13.54167,73
13.55,106
13.55833,107
13.56667,110
13.575,150
13.58333,160
13.59167,179
13.6,200
13.60833,202
13.61667,223
13.625,256
13.63333,317
13.64167,344
13.65,368
13.65833,397
13.66667,437
13.675,460
13.68333,460
13.69167,482
13.7,513
13.70833,547
13.71667,564
13.725,550
13.73333,526
13.74167,509
13.75,476
13.75833,474
13.76667,492
13.775,499
13.78333,495
13.79167,486
13.8,487
13.80833,495
13.81667,477
13.825,460
13.83333,436
13.84167,435
13.85,422
13.85833,376
13.86667,329
13.875,285
13.88333,252
13.89167,244
13.9,238
13.90833,240
13.91667,219
13.925,209
13.93333,198
13.94167,174
13.95,123
13.95833,79
13.96667,70
13.975,60
13.98333,77
13.99167,100
14.0,91
14.00833,88
14.01667,84
14.025,63
14.03333,54
14.04167,35
14.05,17
14.05833,14
14.06667,1
14.075,-6
14.08333,-24
14.09167,-37
14.1,-47
14.10833,-20
14.11667,-3
14.125,-14
14.13333,-8
14.14167,-11
14.15,-43
14.15833,-55
14.16667,-62
14.175,-63
14.18333,-73
14.19167,-73
14.2,-66
14.20833,-36
14.21667,-12
14.225,-8
14.23333,-20
14.24167,-28
14.25,-41
14.25833,-33
14.26667,-28
14.275,-60
14.28333,-91
14.29167,-109
14.3,-109
14.30833,-109
14.31667,-109
14.325,-111
14.33333,-133
14.34167,-163
14.35,-158
14.35833,-120
14.36667,-111
14.375,-94
14.38333,-101
14.39167,-110
14.4,-148
14.40833,-155
14.41667,-129
14.425,-129
14.43333,-159
14.44167,-158
14.45,-164
14.45833,-196
14.46667,-218
14.475,-214
14.48333,-205
14.49167,-171
14.5,-135
14.50833,-105
14.51667,-96
14.525,-113
14.53333,-129
14.54167,-114
14.55,-97
14.55833,-114
14.56667,-130
14.575,-152
14.58333,-165
14.59167,-167
14.6,-164
14.60833,-172
14.61667,-198
14.625,-219
14.63333,-249
14.64167,-241
14.65,-219
14.65833,-163
14.66667,-120
14.675,-117
14.68333,-118
14.69167,-144
14.7,-146
14.70833,-132
14.71667,-153
14.725,-168
14.73333,-168
14.74167,-159
14.75,-142
14.75833,-119
14.76667,-109
14.775,-86
14.78333,-67
14.79167,-75
14.8,-87
14.80833,-118
14.81667,-137
14.825,-144
14.83333,-163
14.84167,-174
14.85,-165
14.85833,-129
14.86667,-92
14.875,-58
14.88333,-56
14.89167,-68
14.9,-86
14.90833,-125
14.91667,-129
14.925,-139
14.93333,-141
14.94167,-145
14.95,-200
14.95833,-257
14.96667,-255
14.975,-228
14.98333,-204
14.99167,-208
15.0,-235
15.00833,-284
15.01667,-274
15.025,-247
15.03333,-229
15.04167,-195
15.05,-164
15.05833,-170
15.06667,-204
15.075,-238
15.08333,-246
15.09167,-224
15.1,-187
15.10833,-149
15.11667,-145
15.125,-141
15.13333,-132
15.14167,-159
15.15,-166
15.15833,-106
15.16667,-72
15.175,-60
15.18333,-94
15.19167,-151
15.2,-181
15.20833,-179
15.21667,-152
15.225,-126
15.23333,-99
15.24167,-108
15.25,-127
15.25833,-150
15.26667,-158
15.275,-168
15.28333,-163
15.29167,-164
15.3,-167
15.30833,-160
15.31667,-193
15.325,-215
15.33333,-179
15.34167,-140
15.35,-138
15.35833,-152
15.36667,-147
15.375,-132
15.38333,-123
15.39167,-131
15.4,-156
15.40833,-175
15.41667,-187
15.425,-205
15.43333,-192
15.44167,-171
15.45,-163
15.45833,-138
15.46667,-131
15.475,-125
15.48333,-151
15.49167,-154
15.5,-157
15.50833,-163
15.51667,-164
15.525,-160
15.53333,-166
15.54167,-179
15.55,-201
15.55833,-221
15.56667,-201
15.575,-153
15.58333,-128
15.59167,-160
15.6,-181
15.60833,-215
15.61667,-210
15.625,-220
15.63333,-216
15.64167,-184
15.65,-169
15.65833,-157
15.66667,-187
15.675,-254
15.68333,-271
15.69167,-267
15.7,-269
15.70833,-260
15.71667,-230
15.725,-200
15.73333,-216
15.74167,-218
15.75,-227
15.75833,-208
15.76667,-172
15.775,-156
15.78333,-197
15.79167,-234
15.8,-256
15.80833,-267
15.81667,-279
15.825,-257
15.83333,-234
15.84167,-226
15.85,-243
15.85833,-278
15.86667,-292
15.875,-297
15.88333,-283
15.89167,-273
15.9,-272
15.90833,-265
15.91667,-265
15.925,-272
15.93333,-260
15.94167,-242
15.95,-256
15.95833,-281
15.96667,-291
15.975,-280
15.98333,-278
15.99167,-315
16.0,-317
16.00833,-334
16.01667,-321
16.025,-322
16.03333,-340
16.04167,-362
16.05,-339
16.05833,-324
16.06667,-334
16.075,-340
16.08333,-337
16.09167,-349
16.1,-352
16.10833,-308
16.11667,-310
16.125,-342
16.13333,-329
16.14167,-314
16.15,-356
16.15833,-387
16.16667,-374
16.175,-353
16.18333,-351
16.19167,-361
16.2,-335
16.20833,-320
16.21667,-322
16.225,-354
16.23333,-391
16.24167,-403
16.25,-410
16.25833,-396
16.26667,-381
16.275,-393
16.28333,-425
16.29167,-426
16.3,-421
16.30833,-403
16.31667,-384
16.325,-363
16.33333,-375
16.34167,-378
16.35,-380
16.35833,-340
16.36667,-310
16.375,-311
16.38333,-320
16.39167,-329
16.4,-355
16.40833,-355
16.41667,-358
16.425,-389
16.43333,-377
16.44167,-354
16.45,-351
16.45833,-380
16.46667,-416
16.475,-437
16.48333,-457
16.49167,-447
16.5,-416
16.50833,-385
16.51667,-375
16.525,-360
16.53333,-349
16.54167,-337
16.55,-324
16.55833,-312
16.56667,-302
16.575,-296
16.58333,-324
16.59167,-319
16.6,-300
16.60833,-296
16.61667,-331
16.625,-351
16.63333,-362
16.64167,-360
16.65,-358
16.65833,-317
16.66667,-304
16.675,-309
16.68333,-288
16.69167,-265
16.7,-273
16.70833,-311
16.71667,-325
16.725,-337
16.73333,-331
16.74167,-317
16.75,-309
16.75833,-294
16.76667,-309
16.775,-318
16.78333,-337
16.79167,-373
16.8,-398
16.80833,-412
16.81667,-403
16.825,-374
16.83333,-350
16.84167,-315
16.85,-283
16.85833,-273
16.86667,-251
16.875,-249
16.88333,-266
16.89167,-279
16.9,-270
16.90833,-282
16.91667,-307
16.925,-328
16.93333,-338
16.94167,-330
16.95,-319
16.95833,-312
16.96667,-296
16.975,-325
16.98333,-329
16.99167,-332
17.0,-353
17.00833,-411
17.01667,-444
17.025,-419
17.03333,-402
17.04167,-409
17.05,-394
17.05833,-361
17.06667,-317
17.075,-282
17.08333,-254
17.09167,-243
17.1,-236
17.10833,-232
17.11667,-248
17.125,-275
17.13333,-282
17.14167,-270
17.15,-252
17.15833,-266
17.16667,-283
17.175,-272
17.18333,-254
17.19167,-244
17.2,-237
17.20833,-238
17.21667,-216
17.225,-201
17.23333,-181
17.24167,-168
17.25,-145
17.25833,-133
17.26667,-113
17.275,-119
17.28333,-106
17.29167,-110
17.3,-83
17.30833,-53
17.31667,-26
17.325,-21
17.33333,-24
17.34167,4
17.35,33
17.35833,62
17.36667,69
17.375,98
17.38333,122
17.39167,123
17.4,118
17.40833,124
17.41667,136
17.425,127
17.43333,125
17.44167,137
17.45,146
17.45833,153
17.46667,174
17.475,180
17.48333,199
17.49167,210
17.5,212
17.50833,229
17.51667,210
17.525,184
17.53333,167
17.54167,150
17.55,127
17.55833,83
17.56667,87
17.575,88
17.58333,73
17.59167,70
17.6,75
17.60833,84
17.61667,62
17.625,55
17.63333,35
17.64167,-47
17.65,-104
17.65833,-125
17.66667,-159
17.675,-180
17.68333,-167
17.69167,-144
17.7,-141
17.70833,-177
17.71667,-199
17.725,-188
17.73333,-168
17.74167,-178
17.75,-205
17.75833,-207
17.76667,-207
17.775,-206
17.78333,-203
17.79167,-186
17.8,-201
17.80833,-253
17.81667,-286
17.825,-292
17.83333,-287
17.84167,-259
17.85,-219
17.85833,-188
17.86667,-149
17.875,-183
17.88333,-231
17.89167,-254
17.9,-287
17.90833,-291
17.91667,-287
17.925,-289
17.93333,-278
17.94167,-259
17.95,-225
17.95833,-202
17.96667,-228
17.975,-246
17.98333,-246
17.99167,-257
18.0,-273
18.00833,-286
18.01667,-309
18.025,-310
18.03333,-315
18.04167,-322
18.05,-296
18.05833,-286
18.06667,-326
18.075,-349
18.08333,-324
18.09167,-282
18.1,-250
18.10833,-261
18.11667,-296
18.125,-330
18.13333,-329
18.14167,-319
18.15,-318
18.15833,-323
18.16667,-336
18.175,-347
18.18333,-333
18.19167,-319
18.2,-289
18.20833,-263
18.21667,-236
18.225,-258
18.23333,-262
18.24167,-268
18.25,-300
18.25833,-321
18.26667,-323
18.275,-321
18.28333,-317
18.29167,-311
18.3,-298
18.30833,-289
18.31667,-279
18.325,-247
18.33333,-216
18.34167,-218
18.35,-210
18.35833,-211
18.36667,-219
18.375,-218
18.38333,-170
18.39167,-132
18.4,-133
18.40833,-155
18.41667,-164
18.425,-190
18.43333,-190
18.44167,-185
18.45,-195
18.45833,-222
18.46667,-264
18.475,-253
18.48333,-241
18.49167,-222
18.5,-193
18.50833,-175
18.51667,-155
18.525,-168
18.53333,-193
18.54167,-178
18.55,-204
18.55833,-230
18.56667,-230
18.575,-216
18.58333,-230
18.59167,-236
18.6,-262
18.60833,-259
18.61667,-205
18.625,-187
18.63333,-163
18.64167,-135
18.65,-150
18.65833,-188
18.66667,-193
18.675,-170
18.68333,-148
18.69167,-168
18.7,-195
18.70833,-203
18.71667,-176
18.725,-145
18.73333,-142
18.74167,-151
18.75,-178
18.75833,-176
18.76667,-168
18.775,-168
18.78333,-146
18.79167,-150
18.8,-191
18.80833,-189
18.81667,-165
18.825,-151
18.83333,-129
18.84167,-96
18.85,-54
18.85833,-46
18.86667,-69
18.875,-96
18.88333,-128
18.89167,-156
18.9,-163
18.90833,-167
18.91667,-169
18.925,-176
18.93333,-188
18.94167,-157
18.95,-121
18.95833,-109
18.96667,-98
18.975,-97
18.98333,-104
18.99167,-128
19.0,-169
19.00833,-199
19.01667,-177
19.025,-143
19.03333,-121
19.04167,-109
19.05,-115
19.05833,-144
19.06667,-187
19.075,-199
19.08333,-151
19.09167,-126
19.1,-121
19.10833,-133
19.11667,-139
19.125,-134
19.13333,-120
19.14167,-105
19.15,-98
19.15833,-95
19.16667,-92
19.175,-101
19.18333,-140
19.19167,-145
19.2,-139
19.20833,-130
19.21667,-131
19.225,-132
19.23333,-130
19.24167,-132
19.25,-128
19.25833,-101
19.26667,-116
19.275,-135
19.28333,-147
19.29167,-152
19.3,-160
19.30833,-158
19.31667,-152
19.325,-156
19.33333,-138
19.34167,-149
19.35,-142
19.35833,-162
19.36667,-170
19.375,-168
19.38333,-169
19.39167,-182
19.4,-174
19.40833,-199
19.41667,-188
19.425,-164
19.43333,-149
19.44167,-146
19.45,-161
19.45833,-187
19.46667,-213
19.475,-219
19.48333,-216
19.49167,-218
19.5,-207
19.50833,-191
19.51667,-179
19.525,-158
19.53333,-163
19.54167,-141
19.55,-122
19.55833,-134
19.56667,-162
19.575,-175
19.58333,-170
19.59167,-163
19.6,-162
19.60833,-136
19.61667,-139
19.625,-176
19.63333,-193
19.64167,-179
19.65,-162
19.65833,-165
19.66667,-184
19.675,-193
19.68333,-202
19.69167,-185
19.7,-149
19.70833,-142
19.71667,-142
19.725,-151
19.73333,-158
19.74167,-173
19.75,-196
19.75833,-197
19.76667,-189
19.775,-197
19.78333,-188
19.79167,-192
19.8,-214
19.80833,-207
19.81667,-173
19.825,-153
19.83333,-157
19.84167,-174
19.85,-206
19.85833,-197
19.86667,-147
19.875,-121
19.88333,-123
19.89167,-126
19.9,-122
19.90833,-111
19.91667,-139
19.925,-147
19.93333,-154
19.94167,-188
19.95,-181
19.95833,-189
19.96667,-196
19.975,-184
19.98333,-175
19.99167,-169
20.0,-152
20.00833,-184
20.01667,-209
20.025,-233
20.03333,-221
20.04167,-181
20.05,-161
20.05833,-169
20.06667,-191
20.075,-248
20.08333,-273
20.09167,-261
20.1,-263
20.10833,-250
20.11667,-199
20.125,-146
20.13333,-138
20.14167,-157
20.15,-171
20.15833,-175
20.16667,-202
20.175,-216
20.18333,-204
20.19167,-213
20.2,-203
20.20833,-189
20.21667,-196
20.225,-206
20.23333,-167
20.24167,-129
20.25,-131
20.25833,-138
20.26667,-151
20.275,-156
20.28333,-164
20.29167,-168
20.3,-155
20.30833,-136
20.31667,-133
20.325,-134
20.33333,-143
20.34167,-150
20.35,-123
20.35833,-103
20.36667,-130
20.375,-161
20.38333,-163
20.39167,-128
20.4,-107
20.40833,-109
20.41667,-144
20.425,-180
20.43333,-192
20.44167,-186
20.45,-201
20.45833,-227
20.46667,-235
20.475,-232
20.48333,-210
20.49167,-192
20.5,-197
20.50833,-234
20.51667,-251
20.525,-267
20.53333,-247
20.54167,-250
20.55,-243
20.55833,-214
20.56667,-175
20.575,-160
20.58333,-160
20.59167,-170
20.6,-173
20.60833,-174
20.61667,-190
20.625,-224
20.63333,-247
20.64167,-229
20.65,-224
20.65833,-222
20.66667,-234
20.675,-221
20.68333,-201
20.69167,-187
20.7,-169
20.70833,-145
20.71667,-139
20.725,-156
20.73333,-164
20.74167,-169
20.75,-144
20.75833,-126
20.76667,-98
20.775,-91
20.78333,-79
20.79167,-84
20.8,-94
20.80833,-112
20.81667,-148
20.825,-161
20.83333,-147
20.84167,-115
20.85,-92
20.85833,-86
20.86667,-58
20.875,-33
20.88333,-27
20.89167,-35
20.9,-37
20.90833,-37
20.91667,-53
20.925,-70
20.93333,-62
20.94167,-73
20.95,-106
20.95833,-126
20.96667,-134
20.975,-151
20.98333,-176
20.99167,-161
21.0,-136
21.00833,-159
21.01667,-195
21.025,-215
21.03333,-203
21.04167,-193
21.05,-172
21.05833,-178
21.06667,-182
21.075,-187
21.08333,-158
21.09167,-93
21.1,-66
21.10833,-92
21.11667,-123
21.125,-136
21.13333,-124
21.14167,-124
21.15,-111
21.15833,-92
21.16667,-82
21.175,-49
21.18333,-61
21.19167,-88
21.2,-94
21.20833,-132
21.21667,-139
21.225,-116
21.23333,-95
21.24167,-85
21.25,-67
21.25833,-79
21.26667,-89
21.275,-95
21.28333,-87
21.29167,-92
21.3,-76
21.30833,-62
21.31667,-67
21.325,-69
21.33333,-89
21.34167,-98
21.35,-89
21.35833,-61
21.36667,-50
21.375,-27
21.38333,-34
21.39167,-42
21.4,-45
21.40833,-66
21.41667,-73
21.425,-72
21.43333,-51
21.44167,-25
21.45,-30
21.45833,-27
21.46667,6
21.475,36
21.48333,34
21.49167,-9
21.5,-73
21.50833,-86
21.51667,-102
21.525,-99
21.53333,-89
21.54167,-78
21.55,-45
21.55833,4
21.56667,17
21.575,5
21.58333,13
21.59167,13
21.6,42
21.60833,67
21.61667,82
21.625,55
21.63333,-24
21.64167,-84
21.65,-81
21.65833,-71
21.66667,-59
21.675,-63
21.68333,-108
21.69167,-133
21.7,-133
21.70833,-159
21.71667,-189
21.725,-159
21.73333,-125
21.74167,-141
21.75,-172
21.75833,-198
21.76667,-153
21.775,-122
21.78333,-90
21.79167,-61
21.8,-76
21.80833,-130
21.81667,-159
21.825,-178
21.83333,-156
21.84167,-116
21.85,-122
21.85833,-132
21.86667,-119
21.875,-118
21.88333,-124
21.89167,-102
21.9,-102
21.90833,-78
21.91667,-94
21.925,-118
21.93333,-91
21.94167,-50
21.95,-44
21.95833,-73
21.96667,-84
21.975,-101
21.98333,-113
21.99167,-153
22.0,-173
22.00833,-189
22.01667,-176
22.025,-189
22.03333,-173
22.04167,-180
22.05,-180
22.05833,-141
22.06667,-102
22.075,-99
22.08333,-82
22.09167,-56
22.1,-57
22.10833,-89
22.11667,-98
22.125,-100
22.13333,-98
22.14167,-101
22.15,-110
22.15833,-89
22.16667,-83
22.175,-90
22.18333,-128
22.19167,-117
22.2,-95
22.20833,-86
22.21667,-73
22.225,-29
22.23333,-29
22.24167,-66
22.25,-100
22.25833,-95
22.26667,-51
22.275,-33
22.28333,-69
22.29167,-86
22.3,-94
22.30833,-71
22.31667,-84
22.325,-105
22.33333,-91
22.34167,-65
22.35,-34
22.35833,-23
22.36667,-11
22.375,-8
22.38333,10
22.39167,41
22.4,48
22.40833,49
22.41667,23
22.425,-6
22.43333,-14
22.44167,3
22.45,24
22.45833,43
22.46667,79
22.475,100
22.48333,82
22.49167,60
22.5,60
22.50833,46
22.51667,30
22.525,11
22.53333,-8
22.54167,-6
22.55,8
22.55833,16
22.56667,22
22.575,32
22.58333,60
22.59167,88
22.6,108
22.60833,105
22.61667,95
22.625,42
22.63333,33
22.64167,40
22.65,61
22.65833,74
22.66667,75
22.675,91
22.68333,99
22.69167,102
22.7,106
22.70833,95
22.71667,68
22.725,85
22.73333,111
22.74167,75
22.75,53
22.75833,59
22.76667,76
22.775,90
22.78333,98
22.79167,98
22.8,86
22.80833,90
22.81667,107
22.825,95
22.83333,65
22.84167,49
22.85,53
22.85833,83
22.86667,108
22.875,110
22.88333,130
22.89167,132
22.9,103
22.90833,70
22.91667,59
22.925,71
22.93333,92
22.94167,132
22.95,143
22.95833,165
22.96667,163
22.975,150
22.98333,141
22.99167,118
23.0,86
23.00833,73
23.01667,73
23.025,100
23.03333,83
23.04167,83
23.05,85
23.05833,86
23.06667,82
23.075,95
23.08333,110
23.09167,105
23.1,77
23.10833,79
23.11667,84
23.125,84
23.13333,130
23.14167,155
23.15,162
23.15833,169
23.16667,188
23.175,181
23.18333,158
23.19167,155
23.2,136
23.20833,100
23.21667,84
23.225,89
23.23333,69
23.24167,49
23.25,53
23.25833,53
23.26667,52
23.275,38
23.28333,21
23.29167,32
23.3,54
23.30833,80
23.31667,120
23.325,148
23.33333,173
23.34167,154
23.35,101
23.35833,90
23.36667,107
23.375,90
23.38333,120
23.39167,150
23.4,156
23.40833,144
23.41667,171
23.425,165
23.43333,143
23.44167,139
23.45,117
23.45833,123
23.46667,109
23.475,108
23.48333,96
23.49167,89
23.5,75
23.50833,86
23.51667,85
23.525,92
23.53333,91
23.54167,70
23.55,60
23.55833,44
23.56667,37
23.575,32
23.58333,25
23.59167,5
23.6,24
23.60833,32
23.61667,56
23.625,50
23.63333,64
23.64167,76
23.65,51
23.65833,49
23.66667,69
23.675,64
23.68333,40
23.69167,32
23.7,44
23.70833,43
23.71667,8
23.725,2
23.73333,9
23.74167,20
23.75,2
23.75833,-27
23.76667,-27
23.775,-42
23.78333,-55
23.79167,-95
23.8,-108
23.80833,-106
23.81667,-102
23.825,-87
23.83333,-80
23.84167,-42
23.85,-29
23.85833,-20
23.86667,-19
23.875,-33
23.88333,-57
23.89167,-71
23.9,-57
23.90833,-46
23.91667,-39
23.925,-30
23.93333,-37
23.94167,-58
23.95,-83
23.95833,-92
23.96667,-76
23.975,-98
23.98333,-145
23.99167,-201
24.0,-206
24.00833,-191
24.01667,-175
24.025,-176
24.03333,-186
24.04167,-202
24.05,-207
24.05833,-200
24.06667,-206
24.075,-201
24.08333,-222
24.09167,-249
24.1,-249
24.10833,-253
24.11667,-259
24.125,-291
24.13333,-321
24.14167,-358
24.15,-392
24.15833,-392
24.16667,-427
24.175,-461
24.18333,-455
24.19167,-458
24.2,-472
24.20833,-466
24.21667,-472
24.225,-471
24.23333,-513
24.24167,-567
24.25,-606
24.25833,-643
24.26667,-668
24.275,-675
24.28333,-677
24.29167,-636
24.3,-642
24.30833,-640
24.31667,-636
24.325,-661
24.33333,-675
24.34167,-721
24.35,-777
24.35833,-806
24.36667,-816
24.375,-836
24.38333,-879
24.39167,-904
24.4,-914
24.40833,-921
24.41667,-953
24.425,-1006
24.43333,-1078
24.44167,-1112
24.45,-1115
24.45833,-1152
24.46667,-1193
24.475,-1204
24.48333,-1206
24.49167,-1209
24.5,-1250
24.50833,-1313
24.51667,-1349
24.525,-1418
24.53333,-1482
24.54167,-1539
24.55,-1588
24.55833,-1629
24.56667,-1681
24.575,-1721
24.58333,-1764
24.59167,-1816
24.6,-1845
24.60833,-1896
24.61667,-1955
24.625,-1983
24.63333,-2015
24.64167,-2043
24.65,-2069
24.65833,-2108
24.66667,-2141
24.675,-2201
24.68333,-2284
24.69167,-2339
24.7,-2387
24.70833,-2411
24.71667,-2435
24.725,-2466
24.73333,-2517
24.74167,-2578
24.75,-2631
24.75833,-2668
24.76667,-2721
24.775,-2806
24.78333,-2871
24.79167,-2905
24.8,-2934
24.80833,-2948
24.81667,-2981
24.825,-3012
24.83333,-3028
24.84167,-3077
24.85,-3140
24.85833,-3178
24.86667,-3165
24.875,-3191
24.88333,-3223
24.89167,-3257
24.9,-3283
24.90833,-3293
24.91667,-3279
24.925,-3253
24.93333,-3239
24.94167,-3238
24.95,-3242
24.95833,-3251
24.96667,-3286
24.975,-3272
24.98333,-3242
24.99167,-3228
25.0,-3222
