R.Time (min),Intensity
0.0,-1
0.00833,-1
0.01667,0
0.025,1
0.03333,1
0.04167,2
0.05,2
0.05833,3
0.06667,3
0.075,4
0.08333,3
0.09167,2
0.1,1
0.10833,1
0.11667,1
0.125,1
0.13333,1
0.14167,0
0.15,0
0.15833,0
0.16667,0
0.175,0
0.18333,1
0.19167,1
0.2,1
0.20833,1
0.21667,1
0.225,1
0.23333,2
0.24167,3
0.25,3
0.25833,3
0.26667,3
0.275,4
0.28333,3
0.29167,2
0.3,2
0.30833,2
0.31667,2
0.325,2
0.33333,2
0.34167,1
0.35,2
0.35833,3
0.36667,3
0.375,3
0.38333,3
0.39167,3
0.4,3
0.40833,3
0.41667,3
0.425,3
0.43333,3
0.44167,3
0.45,2
0.45833,2
0.46667,2
0.475,2
0.48333,2
0.49167,2
0.5,2
0.50833,2
0.51667,1
0.525,1
0.53333,1
0.54167,1
0.55,1
0.55833,0
0.56667,0
0.575,0
0.58333,0
0.59167,-1
0.6,-1
0.60833,0
0.61667,1
0.625,0
0.63333,0
0.64167,0
0.65,1
0.65833,1
0.66667,1
0.675,1
0.68333,1
0.69167,0
0.7,0
0.70833,0
0.71667,0
0.725,0
0.73333,0
0.74167,1
0.75,1
0.75833,1
0.76667,0
0.775,0
0.78333,-1
0.79167,-1
0.8,-1
0.80833,-1
0.81667,-2
0.825,-2
0.83333,-1
0.84167,-1
0.85,-1
0.85833,-2
0.86667,-2
0.875,-2
0.88333,-2
0.89167,-2
0.9,-1
0.90833,-1
0.91667,-2
0.925,-1
0.93333,-1
0.94167,0
0.95,0
0.95833,-1
0.96667,-2
0.975,-3
0.98333,-3
0.99167,-3
1.0,-3
1.00833,-3
1.01667,-2
1.025,-2
1.03333,-2
1.04167,-2
1.05,0
1.05833,0
1.06667,0
1.075,-1
1.08333,-1
1.09167,-1
1.1,-2
1.10833,-2
1.11667,-1
1.125,-2
1.13333,-2
1.14167,-2
1.15,-2
1.15833,-2
1.16667,-2
1.175,-2
1.18333,-2
1.19167,-2
1.2,-2
1.20833,-2
1.21667,-3
1.225,-3
1.23333,-3
1.24167,-3
1.25,-4
1.25833,-4
1.26667,-3
1.275,-3
1.28333,-3
1.29167,-3
1.3,-3
1.30833,-2
1.31667,-2
1.325,-3
1.33333,-3
1.34167,-3
1.35,-3
1.35833,-3
1.36667,-4
1.375,-5
1.38333,-5
1.39167,-4
1.4,-5
1.40833,-5
1.41667,-4
1.425,-4
1.43333,-4
1.44167,-4
1.45,-4
1.45833,-5
1.46667,-5
1.475,-6
1.48333,-5
1.49167,-5
1.5,-5
1.50833,-5
1.51667,-4
1.525,-3
1.53333,-3
1.54167,-4
1.55,-4
1.55833,-4
1.56667,-4
1.575,-5
1.58333,-6
1.59167,-5
1.6,-5
1.60833,-5
1.61667,-5
1.625,-4
1.63333,-4
1.64167,-4
1.65,-5
1.65833,-6
1.66667,-5
1.675,-5
1.68333,-5
1.69167,-5
1.7,-5
1.70833,-4
1.71667,-4
1.725,-3
1.73333,-4
1.74167,-5
1.75,-5
1.75833,-6
1.76667,-5
1.775,-5
1.78333,-6
1.79167,-5
1.8,-5
1.80833,-5
1.81667,-5
1.825,-4
1.83333,-5
1.84167,-5
1.85,-5
1.85833,-4
1.86667,-5
1.875,-5
1.88333,-6
1.89167,-6
1.9,-6
1.90833,-7
1.91667,-8
1.925,-8
1.93333,-9
1.94167,-9
1.95,-8
1.95833,-7
1.96667,-7
1.975,-8
1.98333,-8
1.99167,-8
2.0,-8
2.00833,-7
2.01667,-7
2.025,-6
2.03333,-6
2.04167,-6
2.05,-6
2.05833,-6
2.06667,-7
2.075,-6
2.08333,-6
2.09167,-6
2.1,-5
2.10833,-5
2.11667,-5
2.125,-4
2.13333,-4
2.14167,-4
2.15,-5
2.15833,-4
2.16667,-3
2.175,-3
2.18333,-3
2.19167,-4
2.2,-5
2.20833,-5
2.21667,-5
2.225,-5
2.23333,-5
2.24167,-5
2.25,-6
2.25833,-7
2.26667,-8
2.275,-8
2.28333,-7
2.29167,-6
2.3,-6
2.30833,-6
2.31667,-7
2.325,-7
2.33333,-7
2.34167,-7
2.35,-8
2.35833,-9
2.36667,-8
2.375,-9
2.38333,-8
2.39167,-8
2.4,-7
2.40833,-8
2.41667,-7
2.425,-7
2.43333,-7
2.44167,-7
2.45,-8
2.45833,-9
2.46667,-9
2.475,-9
2.48333,-8
2.49167,-6
2.5,-6
2.50833,-6
2.51667,-8
2.525,-8
2.53333,-9
2.54167,-8
2.55,-8
2.55833,-7
2.56667,-6
2.575,-7
2.58333,-8
2.59167,-8
2.6,-8
2.60833,-9
2.61667,-9
2.625,-9
2.63333,-9
2.64167,-9
2.65,-9
2.65833,-9
2.66667,-9
2.675,-8
2.68333,-8
2.69167,-8
2.7,-8
2.70833,-8
2.71667,-9
2.725,-10
2.73333,-10
2.74167,-10
2.75,-11
2.75833,-10
2.76667,-10
2.775,-9
2.78333,-10
2.79167,-11
2.8,-11
2.80833,-10
2.81667,-9
2.825,-10
2.83333,-10
2.84167,-10
2.85,-10
2.85833,-10
2.86667,-8
2.875,-6
2.88333,-4
2.89167,0
2.9,4
2.90833,12
2.91667,22
2.925,34
2.93333,45
2.94167,56
2.95,67
2.95833,76
2.96667,85
2.975,94
2.98333,105
2.99167,116
3.0,129
3.00833,145
3.01667,165
3.025,189
3.03333,216
3.04167,250
3.05,293
3.05833,350
3.06667,428
3.075,546
3.08333,760
3.09167,1157
3.1,1813
3.10833,2712
3.11667,3729
3.125,4684
3.13333,5419
3.14167,5844
3.15,5947
3.15833,5769
3.16667,5384
3.175,4869
3.18333,4293
3.19167,3708
3.2,3150
3.20833,2644
3.21667,2201
3.225,1823
3.23333,1507
3.24167,1247
3.25,1037
3.25833,869
3.26667,736
3.275,630
3.28333,548
3.29167,487
3.3,443
3.30833,414
3.31667,399
3.325,394
3.33333,397
3.34167,404
3.35,416
3.35833,432
3.36667,454
3.375,478
3.38333,504
3.39167,531
3.4,556
3.40833,576
3.41667,587
3.425,589
3.43333,584
3.44167,575
3.45,566
3.45833,563
3.46667,569
3.475,586
3.48333,616
3.49167,658
3.5,707
3.50833,759
3.51667,806
3.525,842
3.53333,864
3.54167,868
3.55,856
3.55833,832
3.56667,800
3.575,766
3.58333,737
3.59167,713
3.6,697
3.60833,686
3.61667,677
3.625,667
3.63333,654
3.64167,636
3.65,614
3.65833,589
3.66667,563
3.675,539
3.68333,516
3.69167,496
3.7,483
3.70833,491
3.71667,558
3.725,813
3.73333,1605
3.74167,3754
3.75,8822
3.75833,19250
3.76667,38113
3.775,68522
3.78333,113025
3.79167,173435
3.8,251127
3.80833,347393
3.81667,463462
3.825,600247
3.83333,758442
3.84167,939095
3.85,1142942
3.85833,1365588
3.86667,1589667
3.875,1782163
3.88333,1903309
3.89167,1923060
3.9,1834735
3.90833,1657071
3.91667,1424646
3.925,1174188
3.93333,934680
3.94167,723814
3.95,549075
3.95833,410779
3.96667,305137
3.975,226599
3.98333,169362
3.99167,128194
4.0,98775
4.00833,77753
4.01667,62641
4.025,51647
4.03333,43517
4.04167,37384
4.05,32659
4.05833,28949
4.06667,26004
4.075,23701
4.08333,22083
4.09167,21484
4.1,22819
4.10833,28053
4.11667,40782
4.125,66514
4.13333,112083
4.14167,183770
4.15,284449
4.15833,410984
4.16667,553397
4.175,696549
4.18333,823721
4.19167,920594
4.2,978147
4.20833,993772
4.21667,970645
4.225,916002
4.23333,839066
4.24167,749196
4.25,654592
4.25833,561634
4.26667,474722
4.275,396467
4.28333,328049
4.29167,269610
4.3,220620
4.30833,180160
4.31667,147141
4.325,120442
4.33333,98999
4.34167,81855
4.35,68179
4.35833,57274
4.36667,48563
4.375,41582
4.38333,35960
4.39167,31402
4.4,27682
4.40833,24620
4.41667,22078
4.425,19949
4.43333,18148
4.44167,16612
4.45,15289
4.45833,14141
4.46667,13137
4.475,12253
4.48333,11471
4.49167,10774
4.5,10150
4.50833,9588
4.51667,9081
4.525,8621
4.53333,8202
4.54167,7816
4.55,7462
4.55833,7136
4.56667,6838
4.575,6563
4.58333,6306
4.59167,6066
4.6,5843
4.60833,5636
4.61667,5445
4.625,5272
4.63333,5118
4.64167,4987
4.65,4885
4.65833,4827
4.66667,4838
4.675,4964
4.68333,5285
4.69167,5934
4.7,7117
4.70833,9138
4.71667,12422
4.725,17503
4.73333,25001
4.74167,35541
4.75,49634
4.75833,67523
4.76667,89039
4.775,113493
4.78333,139662
4.79167,165890
4.8,190286
4.80833,210970
4.81667,226324
4.825,235204
4.83333,237085
4.84167,232111
4.85,221040
4.85833,205090
4.86667,185740
4.875,164507
4.88333,142775
4.89167,121673
4.9,102025
4.90833,84343
4.91667,68879
4.925,55678
4.93333,44642
4.94167,35580
4.95,28252
4.95833,22406
4.96667,17796
4.975,14198
4.98333,11413
4.99167,9273
5.0,7634
5.00833,6385
5.01667,5431
5.025,4699
5.03333,4137
5.04167,3702
5.05,3358
5.05833,3083
5.06667,2858
5.075,2674
5.08333,2518
5.09167,2386
5.1,2272
5.10833,2174
5.11667,2089
5.125,2014
5.13333,1947
5.14167,1888
5.15,1836
5.15833,1790
5.16667,1749
5.175,1710
5.18333,1674
5.19167,1640
5.2,1607
5.20833,1577
5.21667,1549
5.225,1520
5.23333,1492
5.24167,1466
5.25,1443
5.25833,1425
5.26667,1415
5.275,1417
5.28333,1435
5.29167,1478
5.3,1562
5.30833,1715
5.31667,1985
5.325,2454
5.33333,3275
5.34167,4719
5.35,7267
5.35833,11733
5.36667,19435
5.375,32371
5.38333,53332
5.39167,85829
5.4,133706
5.40833,200363
5.41667,287713
5.425,395177
5.43333,519129
5.44167,653056
5.45,788482
5.45833,916343
5.46667,1028417
5.475,1118404
5.48333,1182465
5.49167,1219231
5.5,1229454
5.50833,1215454
5.51667,1180529
5.525,1128442
5.53333,1063043
5.54167,988020
5.55,906752
5.55833,822238
5.56667,737072
5.575,653430
5.58333,573090
5.59167,497439
5.6,427494
5.60833,363916
5.61667,307040
5.625,256921
5.63333,213375
5.64167,176035
5.65,144405
5.65833,117914
5.66667,95953
5.675,77913
5.68333,63213
5.69167,51321
5.7,41759
5.70833,34107
5.71667,28008
5.725,23158
5.73333,19306
5.74167,16246
5.75,13811
5.75833,11867
5.76667,10309
5.775,9051
5.78333,8031
5.79167,7197
5.8,6510
5.80833,5937
5.81667,5457
5.825,5050
5.83333,4700
5.84167,4396
5.85,4131
5.85833,3898
5.86667,3693
5.875,3512
5.88333,3353
5.89167,3214
5.9,3095
5.90833,2995
5.91667,2912
5.925,2847
5.93333,2796
5.94167,2755
5.95,2722
5.95833,2694
5.96667,2667
5.975,2638
5.98333,2601
5.99167,2557
6.0,2503
6.00833,2441
6.01667,2369
6.025,2290
6.03333,2207
6.04167,2119
6.05,2031
6.05833,1944
6.06667,1862
6.075,1784
6.08333,1712
6.09167,1644
6.1,1583
6.10833,1526
6.11667,1473
6.125,1426
6.13333,1383
6.14167,1342
6.15,1304
6.15833,1269
6.16667,1236
6.175,1207
6.18333,1181
6.19167,1156
6.2,1131
6.20833,1108
6.21667,1086
6.225,1065
6.23333,1045
6.24167,1026
6.25,1007
6.25833,989
6.26667,971
6.275,954
6.28333,938
6.29167,923
6.3,909
6.30833,896
6.31667,882
6.325,869
6.33333,856
6.34167,845
6.35,833
6.35833,822
6.36667,811
6.375,801
6.38333,790
6.39167,780
6.4,770
6.40833,762
6.41667,755
6.425,750
6.43333,745
6.44167,742
6.45,741
6.45833,743
6.46667,747
6.475,752
6.48333,760
6.49167,769
6.5,779
6.50833,789
6.51667,797
6.525,803
6.53333,807
6.54167,809
6.55,806
6.55833,799
6.56667,789
6.575,774
6.58333,757
6.59167,738
6.6,719
6.60833,700
6.61667,679
6.625,659
6.63333,642
6.64167,624
6.65,608
6.65833,593
6.66667,582
6.675,571
6.68333,561
6.69167,552
6.7,543
6.70833,535
6.71667,529
6.725,523
6.73333,518
6.74167,513
6.75,507
6.75833,502
6.76667,498
6.775,495
6.78333,492
6.79167,488
6.8,485
6.80833,480
6.81667,476
6.825,473
6.83333,469
6.84167,466
6.85,462
6.85833,459
6.86667,457
6.875,454
6.88333,451
6.89167,448
6.9,446
6.90833,446
6.91667,446
6.925,445
6.93333,445
6.94167,445
6.95,445
6.95833,443
6.96667,440
6.975,438
6.98333,436
6.99167,432
7.0,429
7.00833,427
7.01667,423
7.025,418
7.03333,412
7.04167,405
7.05,399
7.05833,392
7.06667,385
7.075,380
7.08333,374
7.09167,368
7.1,363
7.10833,358
7.11667,353
7.125,348
7.13333,344
7.14167,341
7.15,337
7.15833,334
7.16667,330
7.175,326
7.18333,323
7.19167,322
7.2,320
7.20833,317
7.21667,315
7.225,312
7.23333,310
7.24167,308
7.25,305
7.25833,305
7.26667,303
7.275,301
7.28333,299
7.29167,297
7.3,295
7.30833,293
7.31667,292
7.325,291
7.33333,290
7.34167,287
7.35,285
7.35833,282
7.36667,279
7.375,277
7.38333,274
7.39167,272
7.4,270
7.40833,268
7.41667,266
7.425,264
7.43333,262
7.44167,260
7.45,258
7.45833,256
7.46667,254
7.475,254
7.48333,252
7.49167,250
7.5,249
7.50833,248
7.51667,247
7.525,247
7.53333,246
7.54167,245
7.55,244
7.55833,243
7.56667,243
7.575,243
7.58333,243
7.59167,243
7.6,241
7.60833,240
7.61667,239
7.625,238
7.63333,237
7.64167,236
7.65,235
7.65833,233
7.66667,232
7.675,230
7.68333,229
7.69167,228
7.7,227
7.70833,227
7.71667,226
7.725,225
7.73333,224
7.74167,223
7.75,223
7.75833,222
7.76667,221
7.775,221
7.78333,220
7.79167,219
7.8,218
7.80833,217
7.81667,217
7.825,216
7.83333,216
7.84167,215
7.85,215
7.85833,214
7.86667,212
7.875,212
7.88333,211
7.89167,211
7.9,210
7.90833,208
7.91667,207
7.925,205
7.93333,204
7.94167,203
7.95,203
7.95833,202
7.96667,200
7.975,199
7.98333,200
7.99167,200
8.0,198
8.00833,197
8.01667,196
8.025,194
8.03333,193
8.04167,192
8.05,192
8.05833,190
8.06667,190
8.075,189
8.08333,190
8.09167,190
8.1,189
8.10833,190
8.11667,190
8.125,190
8.13333,190
8.14167,191
8.15,191
8.15833,192
8.16667,192
8.175,193
8.18333,194
8.19167,196
8.2,197
8.20833,197
8.21667,198
8.225,198
8.23333,197
8.24167,197
8.25,198
8.25833,198
8.26667,197
8.275,195
8.28333,194
8.29167,192
8.3,189
8.30833,188
8.31667,187
8.325,185
8.33333,184
8.34167,182
8.35,181
8.35833,179
8.36667,177
8.375,176
8.38333,173
8.39167,171
8.4,169
8.40833,168
8.41667,167
8.425,166
8.43333,165
8.44167,164
8.45,163
8.45833,162
8.46667,162
8.475,161
8.48333,161
8.49167,160
8.5,160
8.50833,158
8.51667,157
8.525,156
8.53333,155
8.54167,155
8.55,155
8.55833,155
8.56667,155
8.575,155
8.58333,155
8.59167,154
8.6,153
8.60833,152
8.61667,152
8.625,152
8.63333,151
8.64167,151
8.65,151
8.65833,150
8.66667,150
8.675,150
8.68333,150
8.69167,149
8.7,147
8.70833,145
8.71667,145
8.725,144
8.73333,144
8.74167,144
8.75,143
8.75833,143
8.76667,143
8.775,143
8.78333,144
8.79167,142
8.8,142
8.80833,141
8.81667,141
8.825,141
8.83333,141
8.84167,140
8.85,140
8.85833,140
8.86667,140
8.875,140
8.88333,140
8.89167,141
8.9,142
8.90833,142
8.91667,142
8.925,142
8.93333,142
8.94167,142
8.95,142
8.95833,143
8.96667,143
8.975,143
8.98333,142
8.99167,141
9.0,139
9.00833,138
9.01667,137
9.025,136
9.03333,134
9.04167,133
9.05,131
9.05833,131
9.06667,131
9.075,130
9.08333,129
9.09167,128
9.1,128
9.10833,127
9.11667,126
9.125,126
9.13333,125
9.14167,125
9.15,124
9.15833,123
9.16667,123
9.175,123
9.18333,122
9.19167,121
9.2,121
9.20833,120
9.21667,119
9.225,120
9.23333,120
9.24167,119
9.25,119
9.25833,118
9.26667,118
9.275,117
9.28333,118
9.29167,119
9.3,120
9.30833,120
9.31667,120
9.325,121
9.33333,121
9.34167,120
9.35,119
9.35833,120
9.36667,120
9.375,122
9.38333,122
9.39167,122
9.4,124
9.40833,126
9.41667,127
9.425,128
9.43333,128
9.44167,128
9.45,128
9.45833,128
9.46667,128
9.475,128
9.48333,127
9.49167,127
9.5,127
9.50833,127
9.51667,126
9.525,126
9.53333,125
9.54167,123
9.55,122
9.55833,122
9.56667,120
9.575,119
9.58333,118
9.59167,117
9.6,115
9.60833,114
9.61667,113
9.625,113
9.63333,112
9.64167,111
9.65,110
9.65833,109
9.66667,109
9.675,108
9.68333,108
9.69167,108
9.7,107
9.70833,106
9.71667,105
9.725,105
9.73333,104
9.74167,103
9.75,102
9.75833,101
9.76667,101
9.775,101
9.78333,101
9.79167,101
9.8,102
9.80833,102
9.81667,101
9.825,101
9.83333,101
9.84167,99
9.85,99
9.85833,98
9.86667,98
9.875,97
9.88333,96
9.89167,95
9.9,94
9.90833,93
9.91667,93
9.925,94
9.93333,93
9.94167,92
9.95,92
9.95833,92
9.96667,91
9.975,91
9.98333,91
9.99167,91
10.0,92
10.00833,91
10.01667,91
10.025,91
10.03333,92
10.04167,92
10.05,92
10.05833,93
10.06667,93
10.075,94
10.08333,94
10.09167,95
10.1,96
10.10833,97
10.11667,98
10.125,100
10.13333,101
10.14167,103
10.15,106
10.15833,109
10.16667,112
10.175,114
10.18333,117
10.19167,119
10.2,121
10.20833,123
10.21667,126
10.225,128
10.23333,129
10.24167,131
10.25,132
10.25833,132
10.26667,132
10.275,131
10.28333,131
10.29167,131
10.3,130
10.30833,129
10.31667,129
10.325,129
10.33333,128
10.34167,128
10.35,127
10.35833,126
10.36667,125
10.375,122
10.38333,119
10.39167,116
10.4,114
10.40833,112
10.41667,110
10.425,108
10.43333,106
10.44167,105
10.45,103
10.45833,101
10.46667,99
10.475,98
10.48333,95
10.49167,93
10.5,92
10.50833,91
10.51667,89
10.525,90
10.53333,90
10.54167,91
10.55,90
10.55833,88
10.56667,86
10.575,85
10.58333,84
10.59167,84
10.6,83
10.60833,83
10.61667,83
10.625,82
10.63333,82
10.64167,82
10.65,81
10.65833,81
10.66667,81
10.675,80
10.68333,79
10.69167,79
10.7,79
10.70833,79
10.71667,79
10.725,79
10.73333,79
10.74167,79
10.75,78
10.75833,77
10.76667,77
10.775,76
10.78333,76
10.79167,76
10.8,77
10.80833,76
10.81667,76
10.825,76
10.83333,75
10.84167,76
10.85,75
10.85833,76
10.86667,76
10.875,75
10.88333,74
10.89167,75
10.9,74
10.90833,74
10.91667,74
10.925,74
10.93333,75
10.94167,75
10.95,75
10.95833,75
10.96667,75
10.975,75
10.98333,74
10.99167,74
11.0,75
11.00833,76
11.01667,75
11.025,74
11.03333,74
11.04167,75
11.05,75
11.05833,75
11.06667,75
11.075,76
11.08333,76
11.09167,75
11.1,75
11.10833,76
11.11667,76
11.125,75
11.13333,74
11.14167,73
11.15,72
11.15833,72
11.16667,71
11.175,70
11.18333,69
11.19167,68
11.2,68
11.20833,68
11.21667,68
11.225,67
11.23333,66
11.24167,66
11.25,67
11.25833,68
11.26667,67
11.275,66
11.28333,66
11.29167,66
11.3,65
11.30833,64
11.31667,64
11.325,62
11.33333,61
11.34167,60
11.35,61
11.35833,60
11.36667,60
11.375,60
11.38333,59
11.39167,58
11.4,58
11.40833,58
11.41667,58
11.425,57
11.43333,57
11.44167,57
11.45,57
11.45833,56
11.46667,55
11.475,54
11.48333,54
11.49167,54
11.5,54
11.50833,54
11.51667,53
11.525,52
11.53333,52
11.54167,52
11.55,52
11.55833,52
11.56667,52
11.575,51
11.58333,51
11.59167,51
11.6,51
11.60833,51
11.61667,51
11.625,51
11.63333,51
11.64167,51
11.65,51
11.65833,51
11.66667,51
11.675,51
11.68333,51
11.69167,51
11.7,51
11.70833,51
11.71667,50
11.725,48
11.73333,47
11.74167,47
11.75,48
11.75833,49
11.76667,49
11.775,49
11.78333,48
11.79167,48
11.8,48
11.80833,49
11.81667,49
11.825,49
11.83333,49
11.84167,50
11.85,52
11.85833,52
11.86667,52
11.875,53
11.88333,55
11.89167,57
11.9,61
11.90833,65
11.91667,71
11.925,77
11.93333,86
11.94167,96
11.95,109
11.95833,125
11.96667,145
11.975,169
11.98333,197
11.99167,235
12.0,283
12.00833,343
12.01667,418
12.025,512
12.03333,628
12.04167,768
12.05,937
12.05833,1141
12.06667,1381
12.075,1665
12.08333,1995
12.09167,2376
12.1,2805
12.10833,3287
12.11667,3818
12.125,4396
12.13333,5016
12.14167,5668
12.15,6346
12.15833,7036
12.16667,7726
12.175,8400
12.18333,9046
12.19167,9647
12.2,10192
12.20833,10666
12.21667,11062
12.225,11371
12.23333,11586
12.24167,11703
12.25,11723
12.25833,11645
12.26667,11478
12.275,11226
12.28333,10896
12.29167,10497
12.3,10041
12.30833,9537
12.31667,8996
12.325,8429
12.33333,7846
12.34167,7258
12.35,6670
12.35833,6092
12.36667,5531
12.375,4992
12.38333,4480
12.39167,3999
12.4,3551
12.40833,3137
12.41667,2757
12.425,2412
12.43333,2101
12.44167,1823
12.45,1575
12.45833,1357
12.46667,1165
12.475,998
12.48333,853
12.49167,730
12.5,624
12.50833,534
12.51667,456
12.525,389
12.53333,334
12.54167,289
12.55,251
12.55833,220
12.56667,194
12.575,172
12.58333,154
12.59167,138
12.6,126
12.60833,115
12.61667,106
12.625,98
12.63333,91
12.64167,86
12.65,81
12.65833,77
12.66667,73
12.675,69
12.68333,65
12.69167,63
12.7,62
12.70833,60
12.71667,59
12.725,58
12.73333,56
12.74167,55
12.75,54
12.75833,54
12.76667,53
12.775,52
12.78333,51
12.79167,50
12.8,49
12.80833,48
12.81667,48
12.825,49
12.83333,48
12.84167,48
12.85,46
12.85833,44
12.86667,42
12.875,42
12.88333,42
12.89167,41
12.9,41
12.90833,40
12.91667,40
12.925,40
12.93333,40
12.94167,40
12.95,38
12.95833,37
12.96667,37
12.975,37
12.98333,36
12.99167,37
13.0,37
13.00833,38
13.01667,38
13.025,39
13.03333,39
13.04167,39
13.05,39
13.05833,39
13.06667,38
13.075,37
13.08333,37
13.09167,37
13.1,37
13.10833,37
13.11667,36
13.125,35
13.13333,35
13.14167,34
13.15,35
13.15833,35
13.16667,35
13.175,35
13.18333,35
13.19167,36
13.2,36
13.20833,36
13.21667,35
13.225,35
13.23333,35
13.24167,35
13.25,35
13.25833,35
13.26667,34
13.275,33
13.28333,32
13.29167,32
13.3,32
13.30833,32
13.31667,32
13.325,32
13.33333,32
13.34167,32
13.35,32
13.35833,32
13.36667,32
13.375,33
13.38333,34
13.39167,36
13.4,39
13.40833,42
13.41667,44
13.425,47
13.43333,50
13.44167,53
13.45,57
13.45833,62
13.46667,68
13.475,76
13.48333,85
13.49167,94
13.5,104
13.50833,116
13.51667,130
13.525,146
13.53333,163
13.54167,181
13.55,200
13.55833,221
13.56667,243
13.575,267
13.58333,293
13.59167,320
13.6,349
13.60833,380
13.61667,410
13.625,440
13.63333,468
13.64167,495
13.65,522
13.65833,548
13.66667,573
13.675,596
13.68333,617
13.69167,635
13.7,652
13.70833,665
13.71667,676
13.725,685
13.73333,692
13.74167,696
13.75,697
13.75833,696
13.76667,692
13.775,685
13.78333,676
13.79167,665
13.8,653
13.80833,642
13.81667,629
13.825,614
13.83333,598
13.84167,582
13.85,564
13.85833,546
13.86667,527
13.875,508
13.88333,489
13.89167,470
13.9,452
13.90833,434
13.91667,415
13.925,398
13.93333,382
13.94167,366
13.95,350
13.95833,335
13.96667,320
13.975,305
13.98333,291
13.99167,278
14.0,266
14.00833,256
14.01667,245
14.025,235
14.03333,227
14.04167,220
14.05,213
14.05833,206
14.06667,199
14.075,191
14.08333,183
14.09167,176
14.1,168
14.10833,161
14.11667,155
14.125,150
14.13333,146
14.14167,141
14.15,136
14.15833,131
14.16667,127
14.175,123
14.18333,119
14.19167,115
14.2,111
14.20833,108
14.21667,104
14.225,101
14.23333,98
14.24167,95
14.25,92
14.25833,89
14.26667,86
14.275,84
14.28333,82
14.29167,80
14.3,79
14.30833,77
14.31667,75
14.325,72
14.33333,71
14.34167,70
14.35,69
14.35833,67
14.36667,65
14.375,63
14.38333,61
14.39167,60
14.4,60
14.40833,60
14.41667,59
14.425,58
14.43333,57
14.44167,56
14.45,55
14.45833,54
14.46667,53
14.475,51
14.48333,51
14.49167,51
14.5,51
14.50833,50
14.51667,49
14.525,49
14.53333,47
14.54167,47
14.55,46
14.55833,47
14.56667,47
14.575,46
14.58333,45
14.59167,44
14.6,44
14.60833,43
14.61667,42
14.625,41
14.63333,40
14.64167,39
14.65,39
14.65833,40
14.66667,39
14.675,38
14.68333,37
14.69167,36
14.7,37
14.70833,36
14.71667,35
14.725,35
14.73333,34
14.74167,34
14.75,34
14.75833,32
14.76667,32
14.775,32
14.78333,33
14.79167,33
14.8,31
14.80833,30
14.81667,29
14.825,29
14.83333,28
14.84167,28
14.85,27
14.85833,26
14.86667,25
14.875,25
14.88333,26
14.89167,25
14.9,24
14.90833,23
14.91667,23
14.925,23
14.93333,23
14.94167,23
14.95,23
14.95833,22
14.96667,22
14.975,22
14.98333,22
14.99167,21
15.0,21
15.00833,20
15.01667,20
15.025,20
15.03333,20
15.04167,19
15.05,19
15.05833,20
15.06667,20
15.075,19
15.08333,19
15.09167,19
15.1,19
15.10833,19
15.11667,18
15.125,18
15.13333,18
15.14167,17
15.15,17
15.15833,17
15.16667,17
15.175,18
15.18333,18
15.19167,18
15.2,19
15.20833,19
15.21667,18
15.225,18
15.23333,18
15.24167,18
15.25,18
15.25833,18
15.26667,18
15.275,18
15.28333,18
15.29167,16
15.3,16
15.30833,15
15.31667,16
15.325,16
15.33333,17
15.34167,17
15.35,16
15.35833,16
15.36667,16
15.375,16
15.38333,17
15.39167,17
15.4,16
15.40833,15
15.41667,14
15.425,14
15.43333,14
15.44167,14
15.45,15
15.45833,16
15.46667,15
15.475,14
15.48333,13
15.49167,13
15.5,14
15.50833,15
15.51667,15
15.525,14
15.53333,15
15.54167,15
15.55,14
15.55833,13
15.56667,12
15.575,12
15.58333,11
15.59167,12
15.6,13
15.60833,12
15.61667,12
15.625,12
15.63333,11
15.64167,10
15.65,10
15.65833,9
15.66667,9
15.675,9
15.68333,9
15.69167,10
15.7,9
15.70833,9
15.71667,8
15.725,8
15.73333,9
15.74167,9
15.75,9
15.75833,7
15.76667,7
15.775,7
15.78333,6
15.79167,6
15.8,6
15.80833,7
15.81667,7
15.825,6
15.83333,5
15.84167,5
15.85,6
15.85833,6
15.86667,6
15.875,7
15.88333,7
15.89167,7
15.9,8
15.90833,8
15.91667,9
15.925,11
15.93333,12
15.94167,12
15.95,11
15.95833,10
15.96667,9
15.975,10
15.98333,10
15.99167,10
16.0,9
16.00833,8
16.01667,8
16.025,9
16.03333,9
16.04167,9
16.05,8
16.05833,8
16.06667,9
16.075,9
16.08333,9
16.09167,9
16.1,10
16.10833,10
16.11667,10
16.125,10
16.13333,10
16.14167,9
16.15,9
16.15833,10
16.16667,10
16.175,12
16.18333,13
16.19167,13
16.2,12
16.20833,11
16.21667,11
16.225,10
16.23333,10
16.24167,10
16.25,10
16.25833,9
16.26667,8
16.275,7
16.28333,5
16.29167,6
16.3,6
16.30833,5
16.31667,5
16.325,5
16.33333,4
16.34167,4
16.35,3
16.35833,4
16.36667,5
16.375,5
16.38333,5
16.39167,4
16.4,4
16.40833,4
16.41667,4
16.425,4
16.43333,5
16.44167,5
16.45,5
16.45833,4
16.46667,4
16.475,4
16.48333,5
16.49167,5
16.5,5
16.50833,6
16.51667,6
16.525,6
16.53333,6
16.54167,5
16.55,4
16.55833,4
16.56667,5
16.575,6
16.58333,6
16.59167,6
16.6,6
16.60833,5
16.61667,4
16.625,5
16.63333,6
16.64167,5
16.65,4
16.65833,4
16.66667,3
16.675,4
16.68333,4
16.69167,3
16.7,4
16.70833,5
16.71667,6
16.725,7
16.73333,7
16.74167,6
16.75,6
16.75833,6
16.76667,7
16.775,6
16.78333,6
16.79167,5
16.8,4
16.80833,4
16.81667,5
16.825,5
16.83333,5
16.84167,5
16.85,5
16.85833,5
16.86667,5
16.875,5
16.88333,4
16.89167,4
16.9,5
16.90833,6
16.91667,6
16.925,5
16.93333,5
16.94167,4
16.95,2
16.95833,1
16.96667,1
16.975,3
16.98333,4
16.99167,5
17.0,6
17.00833,7
17.01667,8
17.025,8
17.03333,8
17.04167,8
17.05,9
17.05833,11
17.06667,13
17.075,15
17.08333,18
17.09167,22
17.1,25
17.10833,28
17.11667,32
17.125,36
17.13333,40
17.14167,46
17.15,54
17.15833,61
17.16667,68
17.175,76
17.18333,86
17.19167,97
17.2,109
17.20833,122
17.21667,135
17.225,148
17.23333,161
17.24167,175
17.25,189
17.25833,203
17.26667,219
17.275,237
17.28333,255
17.29167,273
17.3,292
17.30833,311
17.31667,331
17.325,350
17.33333,368
17.34167,386
17.35,404
17.35833,420
17.36667,437
17.375,453
17.38333,467
17.39167,479
17.4,490
17.40833,498
17.41667,504
17.425,509
17.43333,513
17.44167,514
17.45,513
17.45833,512
17.46667,508
17.475,502
17.48333,495
17.49167,486
17.5,476
17.50833,463
17.51667,450
17.525,435
17.53333,421
17.54167,405
17.55,388
17.55833,371
17.56667,352
17.575,334
17.58333,316
17.59167,298
17.6,280
17.60833,263
17.61667,246
17.625,232
17.63333,217
17.64167,203
17.65,189
17.65833,174
17.66667,161
17.675,147
17.68333,134
17.69167,122
17.7,111
17.70833,102
17.71667,92
17.725,83
17.73333,75
17.74167,68
17.75,60
17.75833,54
17.76667,48
17.775,43
17.78333,38
17.79167,33
17.8,28
17.80833,24
17.81667,21
17.825,19
17.83333,16
17.84167,13
17.85,11
17.85833,9
17.86667,7
17.875,5
17.88333,3
17.89167,2
17.9,2
17.90833,1
17.91667,1
17.925,0
17.93333,-1
17.94167,-3
17.95,-4
17.95833,-6
17.96667,-7
17.975,-7
17.98333,-7
17.99167,-7
18.0,-7
18.00833,-7
18.01667,-8
18.025,-8
18.03333,-8
18.04167,-8
18.05,-7
18.05833,-7
18.06667,-8
18.075,-9
18.08333,-8
18.09167,-9
18.1,-9
18.10833,-9
18.11667,-9
18.125,-8
18.13333,-8
18.14167,-8
18.15,-8
18.15833,-9
18.16667,-9
18.175,-10
18.18333,-9
18.19167,-10
18.2,-9
18.20833,-9
18.21667,-10
18.225,-10
18.23333,-10
18.24167,-10
18.25,-10
18.25833,-10
18.26667,-10
18.275,-11
18.28333,-11
18.29167,-11
18.3,-10
18.30833,-10
18.31667,-11
18.325,-11
18.33333,-11
18.34167,-12
18.35,-12
18.35833,-12
18.36667,-12
18.375,-11
18.38333,-12
18.39167,-12
18.4,-12
18.40833,-13
18.41667,-12
18.425,-12
18.43333,-12
18.44167,-12
18.45,-13
18.45833,-13
18.46667,-13
18.475,-13
18.48333,-14
18.49167,-13
18.5,-12
18.50833,-11
18.51667,-11
18.525,-11
18.53333,-12
18.54167,-12
18.55,-13
18.55833,-13
18.56667,-13
18.575,-13
18.58333,-13
18.59167,-13
18.6,-14
18.60833,-14
18.61667,-13
18.625,-12
18.63333,-13
18.64167,-14
18.65,-14
18.65833,-15
18.66667,-16
18.675,-18
18.68333,-17
18.69167,-16
18.7,-15
18.70833,-14
18.71667,-14
18.725,-15
18.73333,-15
18.74167,-16
18.75,-16
18.75833,-16
18.76667,-15
18.775,-15
18.78333,-15
18.79167,-15
18.8,-15
18.80833,-14
18.81667,-14
18.825,-14
18.83333,-14
18.84167,-15
18.85,-15
18.85833,-15
18.86667,-15
18.875,-17
18.88333,-17
18.89167,-17
18.9,-16
18.90833,-16
18.91667,-16
18.925,-16
18.93333,-16
18.94167,-16
18.95,-16
18.95833,-15
18.96667,-16
18.975,-17
18.98333,-18
18.99167,-18
19.0,-19
19.00833,-19
19.01667,-19
19.025,-19
19.03333,-18
19.04167,-17
19.05,-17
19.05833,-17
19.06667,-17
19.075,-18
19.08333,-19
19.09167,-19
19.1,-18
19.10833,-18
19.11667,-18
19.125,-17
19.13333,-17
19.14167,-16
19.15,-16
19.15833,-15
19.16667,-16
19.175,-17
19.18333,-18
19.19167,-19
19.2,-18
19.20833,-18
19.21667,-18
19.225,-17
19.23333,-17
19.24167,-18
19.25,-18
19.25833,-17
19.26667,-17
19.275,-17
19.28333,-18
19.29167,-19
19.3,-18
19.30833,-17
19.31667,-16
19.325,-16
19.33333,-17
19.34167,-17
19.35,-16
19.35833,-16
19.36667,-16
19.375,-17
19.38333,-17
19.39167,-16
19.4,-16
19.40833,-17
19.41667,-18
19.425,-18
19.43333,-18
19.44167,-18
19.45,-16
19.45833,-16
19.46667,-16
19.475,-17
19.48333,-16
19.49167,-16
19.5,-16
19.50833,-16
19.51667,-18
19.525,-18
19.53333,-19
19.54167,-19
19.55,-18
19.55833,-18
19.56667,-18
19.575,-18
19.58333,-19
19.59167,-20
19.6,-21
19.60833,-20
19.61667,-20
19.625,-19
19.63333,-18
19.64167,-17
19.65,-16
19.65833,-16
19.66667,-18
19.675,-18
19.68333,-18
19.69167,-18
19.7,-17
19.70833,-16
19.71667,-16
19.725,-16
19.73333,-17
19.74167,-16
19.75,-16
19.75833,-17
19.76667,-18
19.775,-18
19.78333,-18
19.79167,-17
19.8,-17
19.80833,-18
19.81667,-18
19.825,-19
19.83333,-18
19.84167,-18
19.85,-18
19.85833,-18
19.86667,-18
19.875,-18
19.88333,-18
19.89167,-17
19.9,-17
19.90833,-17
19.91667,-18
19.925,-18
19.93333,-18
19.94167,-18
19.95,-18
19.95833,-17
19.96667,-18
19.975,-18
19.98333,-17
19.99167,-17
20.0,-17
20.00833,-18
20.01667,-18
20.025,-19
20.03333,-20
20.04167,-20
20.05,-19
20.05833,-18
20.06667,-18
20.075,-18
20.08333,-20
20.09167,-19
20.1,-18
20.10833,-17
20.11667,-16
20.125,-16
20.13333,-16
20.14167,-16
20.15,-16
20.15833,-16
20.16667,-16
20.175,-16
20.18333,-14
20.19167,-13
20.2,-13
20.20833,-13
20.21667,-14
20.225,-15
20.23333,-15
20.24167,-15
20.25,-15
20.25833,-16
20.26667,-16
20.275,-17
20.28333,-18
20.29167,-17
20.3,-16
20.30833,-16
20.31667,-16
20.325,-17
20.33333,-17
20.34167,-17
20.35,-16
20.35833,-16
20.36667,-16
20.375,-17
20.38333,-18
20.39167,-18
20.4,-19
20.40833,-20
20.41667,-20
20.425,-20
20.43333,-21
20.44167,-20
20.45,-20
20.45833,-20
20.46667,-20
20.475,-21
20.48333,-20
20.49167,-20
20.5,-20
20.50833,-19
20.51667,-20
20.525,-21
20.53333,-22
20.54167,-22
20.55,-22
20.55833,-22
20.56667,-22
20.575,-21
20.58333,-21
20.59167,-21
20.6,-21
20.60833,-21
20.61667,-22
20.625,-23
20.63333,-23
20.64167,-23
20.65,-22
20.65833,-22
20.66667,-21
20.675,-20
20.68333,-19
20.69167,-19
20.7,-19
20.70833,-19
20.71667,-20
20.725,-20
20.73333,-20
20.74167,-20
20.75,-21
20.75833,-21
20.76667,-23
20.775,-23
20.78333,-22
20.79167,-21
20.8,-20
20.80833,-20
20.81667,-20
20.825,-20
20.83333,-20
20.84167,-20
20.85,-20
20.85833,-21
20.86667,-21
20.875,-21
20.88333,-20
20.89167,-19
20.9,-19
20.90833,-19
20.91667,-19
20.925,-20
20.93333,-20
20.94167,-20
20.95,-20
20.95833,-20
20.96667,-20
20.975,-20
20.98333,-21
20.99167,-21
21.0,-22
21.00833,-21
21.01667,-21
21.025,-21
21.03333,-20
21.04167,-21
21.05,-20
21.05833,-21
21.06667,-21
21.075,-21
21.08333,-21
21.09167,-19
21.1,-19
21.10833,-20
21.11667,-21
21.125,-21
21.13333,-21
21.14167,-21
21.15,-21
21.15833,-21
21.16667,-20
21.175,-20
21.18333,-20
21.19167,-21
21.2,-22
21.20833,-22
21.21667,-22
21.225,-22
21.23333,-23
21.24167,-23
21.25,-23
21.25833,-24
21.26667,-23
21.275,-22
21.28333,-21
21.29167,-20
21.3,-21
21.30833,-22
21.31667,-23
21.325,-23
21.33333,-23
21.34167,-23
21.35,-22
21.35833,-22
21.36667,-23
21.375,-23
21.38333,-23
21.39167,-23
21.4,-23
21.40833,-23
21.41667,-22
21.425,-22
21.43333,-22
21.44167,-23
21.45,-23
21.45833,-22
21.46667,-22
21.475,-22
21.48333,-21
21.49167,-21
21.5,-23
21.50833,-25
21.51667,-24
21.525,-24
21.53333,-23
21.54167,-23
21.55,-23
21.55833,-23
21.56667,-23
21.575,-23
21.58333,-22
21.59167,-22
21.6,-21
21.60833,-21
21.61667,-22
21.625,-22
21.63333,-22
21.64167,-23
21.65,-23
21.65833,-24
21.66667,-24
21.675,-23
21.68333,-23
21.69167,-24
21.7,-25
21.70833,-25
21.71667,-25
21.725,-24
21.73333,-23
21.74167,-23
21.75,-22
21.75833,-22
21.76667,-23
21.775,-23
21.78333,-23
21.79167,-22
21.8,-22
21.80833,-21
21.81667,-21
21.825,-22
21.83333,-22
21.84167,-23
21.85,-24
21.85833,-24
21.86667,-24
21.875,-24
21.88333,-24
21.89167,-24
21.9,-24
21.90833,-23
21.91667,-23
21.925,-24
21.93333,-24
21.94167,-24
21.95,-24
21.95833,-24
21.96667,-24
21.975,-25
21.98333,-26
21.99167,-25
22.0,-24
22.00833,-24
22.01667,-25
22.025,-25
22.03333,-24
22.04167,-24
22.05,-24
22.05833,-25
22.06667,-25
22.075,-25
22.08333,-24
22.09167,-24
22.1,-25
22.10833,-25
22.11667,-25
22.125,-25
22.13333,-24
22.14167,-25
22.15,-25
22.15833,-25
22.16667,-25
22.175,-24
22.18333,-24
22.19167,-23
22.2,-23
22.20833,-22
22.21667,-21
22.225,-21
22.23333,-21
22.24167,-21
22.25,-22
22.25833,-23
22.26667,-23
22.275,-23
22.28333,-22
22.29167,-22
22.3,-22
22.30833,-22
22.31667,-23
22.325,-23
22.33333,-24
22.34167,-25
22.35,-25
22.35833,-25
22.36667,-24
22.375,-24
22.38333,-24
22.39167,-23
22.4,-23
22.40833,-23
22.41667,-23
22.425,-24
22.43333,-24
22.44167,-24
22.45,-24
22.45833,-23
22.46667,-23
22.475,-22
22.48333,-22
22.49167,-22
22.5,-21
22.50833,-21
22.51667,-20
22.525,-19
22.53333,-19
22.54167,-19
22.55,-19
22.55833,-20
22.56667,-20
22.575,-20
22.58333,-19
22.59167,-20
22.6,-20
22.60833,-20
22.61667,-19
22.625,-19
22.63333,-19
22.64167,-19
22.65,-19
22.65833,-19
22.66667,-20
22.675,-20
22.68333,-20
22.69167,-19
22.7,-18
22.70833,-18
22.71667,-18
22.725,-19
22.73333,-18
22.74167,-19
22.75,-19
22.75833,-19
22.76667,-18
22.775,-19
22.78333,-19
22.79167,-20
22.8,-20
22.80833,-20
22.81667,-19
22.825,-20
22.83333,-20
22.84167,-19
22.85,-19
22.85833,-20
22.86667,-20
22.875,-20
22.88333,-21
22.89167,-22
22.9,-22
22.90833,-22
22.91667,-22
22.925,-22
22.93333,-22
22.94167,-22
22.95,-23
22.95833,-23
22.96667,-23
22.975,-23
22.98333,-22
22.99167,-21
23.0,-22
23.00833,-22
23.01667,-22
23.025,-23
23.03333,-23
23.04167,-24
23.05,-24
23.05833,-24
23.06667,-24
23.075,-23
23.08333,-24
23.09167,-24
23.1,-24
23.10833,-24
23.11667,-24
23.125,-24
23.13333,-25
23.14167,-26
23.15,-26
23.15833,-26
23.16667,-26
23.175,-25
23.18333,-25
23.19167,-25
23.2,-24
23.20833,-23
23.21667,-23
23.225,-22
23.23333,-21
23.24167,-21
23.25,-22
23.25833,-23
23.26667,-24
23.275,-24
23.28333,-25
23.29167,-25
23.3,-25
23.30833,-24
23.31667,-24
23.325,-24
23.33333,-24
23.34167,-25
23.35,-24
23.35833,-24
23.36667,-24
23.375,-25
23.38333,-25
23.39167,-24
23.4,-23
23.40833,-22
23.41667,-22
23.425,-22
23.43333,-22
23.44167,-23
23.45,-23
23.45833,-23
23.46667,-22
23.475,-21
23.48333,-21
23.49167,-21
23.5,-21
23.50833,-22
23.51667,-23
23.525,-23
23.53333,-23
23.54167,-24
23.55,-23
23.55833,-22
23.56667,-21
23.575,-22
23.58333,-22
23.59167,-23
23.6,-24
23.60833,-24
23.61667,-24
23.625,-24
23.63333,-24
23.64167,-24
23.65,-24
23.65833,-25
23.66667,-24
23.675,-23
23.68333,-22
23.69167,-22
23.7,-22
23.70833,-22
23.71667,-23
23.725,-22
23.73333,-22
23.74167,-24
23.75,-25
23.75833,-25
23.76667,-25
23.775,-24
23.78333,-24
23.79167,-23
23.8,-23
23.80833,-24
23.81667,-25
23.825,-25
23.83333,-25
23.84167,-26
23.85,-27
23.85833,-27
23.86667,-27
23.875,-26
23.88333,-26
23.89167,-25
23.9,-25
23.90833,-25
23.91667,-24
23.925,-24
23.93333,-23
23.94167,-23
23.95,-23
23.95833,-24
23.96667,-24
23.975,-25
23.98333,-26
23.99167,-26
24.0,-26
24.00833,-26
24.01667,-25
24.025,-24
24.03333,-23
24.04167,-23
24.05,-23
24.05833,-23
24.06667,-22
24.075,-23
24.08333,-23
24.09167,-24
24.1,-24
24.10833,-25
24.11667,-24
24.125,-23
24.13333,-23
24.14167,-24
24.15,-24
24.15833,-25
24.16667,-25
24.175,-25
24.18333,-25
24.19167,-24
24.2,-24
24.20833,-23
24.21667,-24
24.225,-25
24.23333,-25
24.24167,-24
24.25,-24
24.25833,-23
24.26667,-24
24.275,-24
24.28333,-23
24.29167,-23
24.3,-23
24.30833,-23
24.31667,-23
24.325,-24
24.33333,-25
24.34167,-24
24.35,-23
24.35833,-23
24.36667,-22
24.375,-23
24.38333,-22
24.39167,-22
24.4,-22
24.40833,-22
24.41667,-23
24.425,-24
24.43333,-24
24.44167,-23
24.45,-22
24.45833,-23
24.46667,-23
24.475,-23
24.48333,-23
24.49167,-23
24.5,-23
24.50833,-23
24.51667,-23
24.525,-23
24.53333,-23
24.54167,-23
24.55,-22
24.55833,-21
24.56667,-21
24.575,-21
24.58333,-21
24.59167,-21
24.6,-21
24.60833,-21
24.61667,-20
24.625,-20
24.63333,-20
24.64167,-19
24.65,-20
24.65833,-20
24.66667,-19
24.675,-19
24.68333,-20
24.69167,-21
24.7,-22
24.70833,-21
24.71667,-21
24.725,-21
24.73333,-21
24.74167,-20
24.75,-19
24.75833,-19
24.76667,-19
24.775,-19
24.78333,-19
24.79167,-19
24.8,-18
24.80833,-17
24.81667,-16
24.825,-16
24.83333,-16
24.84167,-16
24.85,-16
24.85833,-15
24.86667,-14
24.875,-14
24.88333,-13
24.89167,-13
24.9,-13
24.90833,-13
24.91667,-14
24.925,-14
24.93333,-14
24.94167,-14
24.95,-13
24.95833,-12
24.96667,-12
24.975,-12
24.98333,-11
24.99167,-10
25.0,-10
