R.Time (min),Intensity
0.0,-20
0.00833,-20
0.01667,-1
0.025,-2
0.03333,-3
0.04167,-3
0.05,-2
0.05833,-2
0.06667,-2
0.075,-3
0.08333,-4
0.09167,-4
0.1,-4
0.10833,-5
0.11667,-7
0.125,-7
0.13333,-7
0.14167,-6
0.15,-6
0.15833,-6
0.16667,-5
0.175,-6
0.18333,-5
0.19167,-5
0.2,-6
0.20833,-6
0.21667,-8
0.225,-9
0.23333,-10
0.24167,-12
0.25,-13
0.25833,-14
0.26667,-14
0.275,-13
0.28333,-14
0.29167,-16
0.3,-17
0.30833,-18
0.31667,-19
0.325,-19
0.33333,-20
0.34167,-21
0.35,-21
0.35833,-21
0.36667,-21
0.375,-22
0.38333,-23
0.39167,-24
0.4,-25
0.40833,-24
0.41667,-25
0.425,-25
0.43333,-27
0.44167,-28
0.45,-29
0.45833,-29
0.46667,-30
0.475,-31
0.48333,-33
0.49167,-34
0.5,-34
0.50833,-33
0.51667,-34
0.525,-35
0.53333,-36
0.54167,-37
0.55,-39
0.55833,-39
0.56667,-40
0.575,-41
0.58333,-40
0.59167,-40
0.6,-41
0.60833,-40
0.61667,-41
0.625,-42
0.63333,-42
0.64167,-43
0.65,-45
0.65833,-45
0.66667,-45
0.675,-45
0.68333,-46
0.69167,-46
0.7,-46
0.70833,-47
0.71667,-47
0.725,-47
0.73333,-48
0.74167,-48
0.75,-49
0.75833,-49
0.76667,-50
0.775,-51
0.78333,-52
0.79167,-53
0.8,-53
0.80833,-55
0.81667,-56
0.825,-56
0.83333,-56
0.84167,-55
0.85,-56
0.85833,-56
0.86667,-57
0.875,-58
0.88333,-58
0.89167,-59
0.9,-59
0.90833,-60
0.91667,-62
0.925,-63
0.93333,-64
0.94167,-65
0.95,-66
0.95833,-66
0.96667,-65
0.975,-64
0.98333,-65
0.99167,-65
1.0,-66
1.00833,-66
1.01667,-67
1.025,-67
1.03333,-67
1.04167,-67
1.05,-68
1.05833,-69
1.06667,-69
1.075,-69
1.08333,-70
1.09167,-70
1.1,-70
1.10833,-70
1.11667,-69
1.125,-69
1.13333,-69
1.14167,-69
1.15,-70
1.15833,-70
1.16667,-71
1.175,-71
1.18333,-71
1.19167,-71
1.2,-72
1.20833,-72
1.21667,-73
1.225,-73
1.23333,-73
1.24167,-73
1.25,-72
1.25833,-72
1.26667,-72
1.275,-72
1.28333,-73
1.29167,-73
1.3,-73
1.30833,-74
1.31667,-74
1.325,-74
1.33333,-74
1.34167,-75
1.35,-76
1.35833,-76
1.36667,-76
1.375,-76
1.38333,-77
1.39167,-77
1.4,-78
1.40833,-79
1.41667,-80
1.425,-80
1.43333,-81
1.44167,-83
1.45,-83
1.45833,-83
1.46667,-82
1.475,-82
1.48333,-83
1.49167,-84
1.5,-85
1.50833,-85
1.51667,-85
1.525,-85
1.53333,-85
1.54167,-85
1.55,-86
1.55833,-87
1.56667,-87
1.575,-87
1.58333,-88
1.59167,-89
1.6,-90
1.60833,-91
1.61667,-90
1.625,-89
1.63333,-88
1.64167,-88
1.65,-88
1.65833,-87
1.66667,-87
1.675,-87
1.68333,-87
1.69167,-86
1.7,-85
1.70833,-83
1.71667,-81
1.725,-78
1.73333,-76
1.74167,-74
1.75,-73
1.75833,-71
1.76667,-66
1.775,-61
1.78333,-57
1.79167,-52
1.8,-47
1.80833,-43
1.81667,-39
1.825,-36
1.83333,-31
1.84167,-27
1.85,-24
1.85833,-20
1.86667,-18
1.875,-17
1.88333,-18
1.89167,-18
1.9,-17
1.90833,-18
1.91667,-19
1.925,-21
1.93333,-25
1.94167,-30
1.95,-33
1.95833,-38
1.96667,-43
1.975,-48
1.98333,-52
1.99167,-57
2.0,-61
2.00833,-65
2.01667,-68
2.025,-72
2.03333,-76
2.04167,-80
2.05,-83
2.05833,-86
2.06667,-88
2.075,-91
2.08333,-93
2.09167,-95
2.1,-96
2.10833,-96
2.11667,-97
2.125,-99
2.13333,-101
2.14167,-102
2.15,-103
2.15833,-104
2.16667,-104
2.175,-105
2.18333,-105
2.19167,-104
2.2,-105
2.20833,-106
2.21667,-108
2.225,-108
2.23333,-109
2.24167,-110
2.25,-110
2.25833,-111
2.26667,-111
2.275,-111
2.28333,-111
2.29167,-111
2.3,-111
2.30833,-111
2.31667,-111
2.325,-112
2.33333,-114
2.34167,-115
2.35,-116
2.35833,-116
2.36667,-117
2.375,-116
2.38333,-116
2.39167,-117
2.4,-117
2.40833,-116
2.41667,-116
2.425,-116
2.43333,-116
2.44167,-116
2.45,-116
2.45833,-117
2.46667,-118
2.475,-118
2.48333,-117
2.49167,-116
2.5,-117
2.50833,-116
2.51667,-116
2.525,-116
2.53333,-118
2.54167,-120
2.55,-121
2.55833,-122
2.56667,-121
2.575,-121
2.58333,-122
2.59167,-122
2.6,-122
2.60833,-121
2.61667,-121
2.625,-122
2.63333,-123
2.64167,-123
2.65,-123
2.65833,-124
2.66667,-125
2.675,-126
2.68333,-125
2.69167,-126
2.7,-126
2.70833,-127
2.71667,-126
2.725,-126
2.73333,-127
2.74167,-127
2.75,-127
2.75833,-127
2.76667,-127
2.775,-127
2.78333,-127
2.79167,-128
2.8,-130
2.80833,-130
2.81667,-129
2.825,-129
2.83333,-128
2.84167,-129
2.85,-129
2.85833,-130
2.86667,-129
2.875,-129
2.88333,-128
2.89167,-128
2.9,-127
2.90833,-126
2.91667,-125
2.925,-124
2.93333,-123
2.94167,-120
2.95,-118
2.95833,-116
2.96667,-112
2.975,-109
2.98333,-104
2.99167,-98
3.0,-92
3.00833,-85
3.01667,-76
3.025,-67
3.03333,-55
3.04167,-42
3.05,-27
3.05833,-7
3.06667,19
3.075,52
3.08333,93
3.09167,140
3.1,193
3.10833,248
3.11667,304
3.125,358
3.13333,409
3.14167,454
3.15,494
3.15833,527
3.16667,553
3.175,572
3.18333,583
3.19167,589
3.2,588
3.20833,581
3.21667,570
3.225,554
3.23333,537
3.24167,517
3.25,496
3.25833,476
3.26667,457
3.275,440
3.28333,425
3.29167,415
3.3,410
3.30833,407
3.31667,407
3.325,412
3.33333,420
3.34167,431
3.35,444
3.35833,462
3.36667,482
3.375,504
3.38333,527
3.39167,548
3.4,564
3.40833,573
3.41667,572
3.425,564
3.43333,550
3.44167,532
3.45,515
3.45833,502
3.46667,495
3.475,495
3.48333,501
3.49167,512
3.5,525
3.50833,539
3.51667,550
3.525,556
3.53333,559
3.54167,557
3.55,554
3.55833,552
3.56667,553
3.575,561
3.58333,579
3.59167,605
3.6,637
3.60833,670
3.61667,703
3.625,731
3.63333,751
3.64167,763
3.65,767
3.65833,764
3.66667,757
3.675,746
3.68333,735
3.69167,731
3.7,757
3.70833,912
3.71667,1517
3.725,3472
3.73333,8859
3.74167,21612
3.75,47773
3.75833,94698
3.76667,169058
3.775,274442
3.78333,410071
3.79167,571576
3.8,753442
3.80833,951669
3.81667,1165523
3.825,1398474
3.83333,1658767
3.84167,1957712
3.85,2298571
3.85833,2656933
3.86667,2986495
3.875,3250966
3.88333,3439012
3.89167,3554721
3.9,3602316
3.90833,3572392
3.91667,3431179
3.925,3148016
3.93333,2737861
3.94167,2259310
3.95,1780163
3.95833,1351152
3.96667,997877
3.975,724866
3.98333,523745
3.99167,380677
4.0,281275
4.00833,213111
4.01667,166513
4.025,134455
4.03333,112065
4.04167,96070
4.05,84314
4.05833,75398
4.06667,68423
4.075,62817
4.08333,58232
4.09167,54482
4.1,51505
4.10833,49333
4.11667,48061
4.125,47795
4.13333,48581
4.14167,50339
4.15,52825
4.15833,55649
4.16667,58333
4.175,60415
4.18333,61539
4.19167,61522
4.2,60362
4.20833,58205
4.21667,55292
4.225,51896
4.23333,48272
4.24167,44632
4.25,41132
4.25833,37871
4.26667,34903
4.275,32246
4.28333,29897
4.29167,27837
4.3,26038
4.30833,24469
4.31667,23099
4.325,21900
4.33333,20844
4.34167,19908
4.35,19075
4.35833,18328
4.36667,17652
4.375,17036
4.38333,16472
4.39167,15954
4.4,15472
4.40833,15021
4.41667,14600
4.425,14204
4.43333,13831
4.44167,13476
4.45,13140
4.45833,12822
4.46667,12519
4.475,12229
4.48333,11951
4.49167,11685
4.5,11430
4.50833,11187
4.51667,10954
4.525,10728
4.53333,10510
4.54167,10299
4.55,10096
4.55833,9899
4.56667,9710
4.575,9528
4.58333,9355
4.59167,9190
4.6,9033
4.60833,8888
4.61667,8758
4.625,8647
4.63333,8560
4.64167,8502
4.65,8480
4.65833,8495
4.66667,8551
4.675,8640
4.68333,8757
4.69167,8888
4.7,9018
4.70833,9130
4.71667,9210
4.725,9249
4.73333,9239
4.74167,9179
4.75,9072
4.75833,8922
4.76667,8734
4.775,8516
4.78333,8275
4.79167,8017
4.8,7750
4.80833,7476
4.81667,7203
4.825,6939
4.83333,6691
4.84167,6462
4.85,6256
4.85833,6070
4.86667,5906
4.875,5759
4.88333,5629
4.89167,5512
4.9,5406
4.90833,5308
4.91667,5218
4.925,5135
4.93333,5058
4.94167,4983
4.95,4912
4.95833,4843
4.96667,4776
4.975,4713
4.98333,4653
4.99167,4595
5.0,4540
5.00833,4485
5.01667,4431
5.025,4379
5.03333,4327
5.04167,4275
5.05,4226
5.05833,4179
5.06667,4134
5.075,4091
5.08333,4050
5.09167,4010
5.1,3973
5.10833,3937
5.11667,3902
5.125,3867
5.13333,3831
5.14167,3794
5.15,3756
5.15833,3716
5.16667,3676
5.175,3637
5.18333,3597
5.19167,3556
5.2,3515
5.20833,3475
5.21667,3437
5.225,3400
5.23333,3364
5.24167,3330
5.25,3298
5.25833,3269
5.26667,3241
5.275,3215
5.28333,3189
5.29167,3164
5.3,3137
5.30833,3111
5.31667,3084
5.325,3060
5.33333,3038
5.34167,3021
5.35,3010
5.35833,3011
5.36667,3031
5.375,3076
5.38333,3155
5.39167,3275
5.4,3443
5.40833,3662
5.41667,3930
5.425,4238
5.43333,4576
5.44167,4926
5.45,5264
5.45833,5569
5.46667,5818
5.475,5998
5.48333,6097
5.49167,6114
5.5,6052
5.50833,5917
5.51667,5721
5.525,5478
5.53333,5204
5.54167,4911
5.55,4613
5.55833,4317
5.56667,4034
5.575,3768
5.58333,3523
5.59167,3303
5.6,3108
5.60833,2937
5.61667,2789
5.625,2662
5.63333,2554
5.64167,2462
5.65,2384
5.65833,2318
5.66667,2261
5.675,2212
5.68333,2170
5.69167,2135
5.7,2104
5.70833,2077
5.71667,2053
5.725,2031
5.73333,2009
5.74167,1988
5.75,1967
5.75833,1944
5.76667,1921
5.775,1897
5.78333,1873
5.79167,1849
5.8,1825
5.80833,1801
5.81667,1778
5.825,1756
5.83333,1734
5.84167,1714
5.85,1694
5.85833,1675
5.86667,1658
5.875,1643
5.88333,1628
5.89167,1615
5.9,1603
5.90833,1592
5.91667,1582
5.925,1572
5.93333,1563
5.94167,1556
5.95,1551
5.95833,1548
5.96667,1545
5.975,1542
5.98333,1538
5.99167,1533
6.0,1528
6.00833,1522
6.01667,1516
6.025,1510
6.03333,1502
6.04167,1493
6.05,1483
6.05833,1473
6.06667,1462
6.075,1449
6.08333,1437
6.09167,1427
6.1,1418
6.10833,1408
6.11667,1396
6.125,1384
6.13333,1372
6.14167,1362
6.15,1352
6.15833,1342
6.16667,1331
6.175,1320
6.18333,1308
6.19167,1298
6.2,1288
6.20833,1278
6.21667,1268
6.225,1259
6.23333,1250
6.24167,1242
6.25,1233
6.25833,1224
6.26667,1214
6.275,1206
6.28333,1197
6.29167,1188
6.3,1180
6.30833,1172
6.31667,1164
6.325,1156
6.33333,1148
6.34167,1140
6.35,1132
6.35833,1124
6.36667,1117
6.375,1109
6.38333,1101
6.39167,1093
6.4,1084
6.40833,1077
6.41667,1070
6.425,1063
6.43333,1056
6.44167,1050
6.45,1043
6.45833,1036
6.46667,1030
6.475,1023
6.48333,1017
6.49167,1010
6.5,1004
6.50833,998
6.51667,991
6.525,984
6.53333,977
6.54167,972
6.55,967
6.55833,961
6.56667,955
6.575,949
6.58333,943
6.59167,938
6.6,932
6.60833,927
6.61667,921
6.625,916
6.63333,910
6.64167,904
6.65,899
6.65833,894
6.66667,889
6.675,885
6.68333,881
6.69167,876
6.7,872
6.70833,867
6.71667,863
6.725,858
6.73333,855
6.74167,852
6.75,848
6.75833,844
6.76667,841
6.775,836
6.78333,831
6.79167,827
6.8,822
6.80833,817
6.81667,812
6.825,808
6.83333,803
6.84167,798
6.85,793
6.85833,787
6.86667,781
6.875,775
6.88333,770
6.89167,764
6.9,758
6.90833,753
6.91667,749
6.925,745
6.93333,742
6.94167,738
6.95,735
6.95833,730
6.96667,726
6.975,722
6.98333,718
6.99167,714
7.0,710
7.00833,708
7.01667,704
7.025,701
7.03333,698
7.04167,694
7.05,689
7.05833,684
7.06667,679
7.075,674
7.08333,669
7.09167,665
7.1,661
7.10833,657
7.11667,653
7.125,649
7.13333,644
7.14167,640
7.15,636
7.15833,632
7.16667,627
7.175,622
7.18333,618
7.19167,614
7.2,609
7.20833,606
7.21667,603
7.225,598
7.23333,594
7.24167,591
7.25,588
7.25833,584
7.26667,580
7.275,577
7.28333,574
7.29167,571
7.3,567
7.30833,563
7.31667,560
7.325,557
7.33333,554
7.34167,550
7.35,548
7.35833,545
7.36667,541
7.375,538
7.38333,534
7.39167,531
7.4,527
7.40833,523
7.41667,520
7.425,517
7.43333,515
7.44167,511
7.45,507
7.45833,502
7.46667,498
7.475,495
7.48333,493
7.49167,491
7.5,488
7.50833,485
7.51667,482
7.525,479
7.53333,477
7.54167,474
7.55,472
7.55833,470
7.56667,468
7.575,466
7.58333,463
7.59167,461
7.6,458
7.60833,456
7.61667,453
7.625,450
7.63333,448
7.64167,446
7.65,444
7.65833,442
7.66667,439
7.675,437
7.68333,434
7.69167,432
7.7,430
7.70833,429
7.71667,426
7.725,424
7.73333,422
7.74167,419
7.75,416
7.75833,414
7.76667,412
7.775,409
7.78333,406
7.79167,403
7.8,401
7.80833,399
7.81667,397
7.825,396
7.83333,394
7.84167,392
7.85,390
7.85833,387
7.86667,384
7.875,382
7.88333,380
7.89167,378
7.9,376
7.90833,373
7.91667,372
7.925,371
7.93333,369
7.94167,366
7.95,364
7.95833,361
7.96667,357
7.975,355
7.98333,354
7.99167,352
8.0,350
8.00833,348
8.01667,345
8.025,343
8.03333,342
8.04167,340
8.05,338
8.05833,337
8.06667,335
8.075,332
8.08333,330
8.09167,328
8.1,326
8.10833,325
8.11667,323
8.125,322
8.13333,320
8.14167,317
8.15,316
8.15833,314
8.16667,312
8.175,311
8.18333,310
8.19167,308
8.2,306
8.20833,303
8.21667,300
8.225,299
8.23333,297
8.24167,295
8.25,295
8.25833,295
8.26667,294
8.275,292
8.28333,290
8.29167,288
8.3,287
8.30833,287
8.31667,286
8.325,285
8.33333,283
8.34167,280
8.35,279
8.35833,276
8.36667,275
8.375,273
8.38333,272
8.39167,271
8.4,270
8.40833,269
8.41667,267
8.425,265
8.43333,263
8.44167,261
8.45,260
8.45833,258
8.46667,258
8.475,257
8.48333,256
8.49167,253
8.5,250
8.50833,249
8.51667,248
8.525,247
8.53333,245
8.54167,243
8.55,243
8.55833,243
8.56667,242
8.575,242
8.58333,241
8.59167,240
8.6,238
8.60833,237
8.61667,236
8.625,234
8.63333,233
8.64167,232
8.65,231
8.65833,230
8.66667,229
8.675,228
8.68333,227
8.69167,227
8.7,226
8.70833,226
8.71667,225
8.725,224
8.73333,223
8.74167,223
8.75,222
8.75833,221
8.76667,220
8.775,220
8.78333,219
8.79167,218
8.8,217
8.80833,215
8.81667,215
8.825,213
8.83333,212
8.84167,210
8.85,209
8.85833,207
8.86667,205
8.875,205
8.88333,204
8.89167,203
8.9,202
8.90833,201
8.91667,200
8.925,199
8.93333,200
8.94167,199
8.95,197
8.95833,196
8.96667,196
8.975,195
8.98333,193
8.99167,191
9.0,191
9.00833,190
9.01667,189
9.025,186
9.03333,185
9.04167,184
9.05,183
9.05833,183
9.06667,182
9.075,182
9.08333,181
9.09167,179
9.1,177
9.10833,176
9.11667,174
9.125,173
9.13333,171
9.14167,170
9.15,169
9.15833,168
9.16667,168
9.175,167
9.18333,165
9.19167,163
9.2,160
9.20833,159
9.21667,158
9.225,156
9.23333,155
9.24167,154
9.25,153
9.25833,153
9.26667,153
9.275,151
9.28333,150
9.29167,148
9.3,147
9.30833,146
9.31667,144
9.325,142
9.33333,141
9.34167,141
9.35,140
9.35833,139
9.36667,138
9.375,138
9.38333,138
9.39167,137
9.4,137
9.40833,137
9.41667,137
9.425,138
9.43333,139
9.44167,140
9.45,141
9.45833,142
9.46667,142
9.475,143
9.48333,143
9.49167,143
9.5,141
9.50833,141
9.51667,140
9.525,140
9.53333,139
9.54167,138
9.55,136
9.55833,133
9.56667,131
9.575,129
9.58333,126
9.59167,125
9.6,124
9.60833,122
9.61667,120
9.625,118
9.63333,115
9.64167,113
9.65,111
9.65833,111
9.66667,110
9.675,110
9.68333,109
9.69167,107
9.7,105
9.70833,103
9.71667,102
9.725,101
9.73333,99
9.74167,97
9.75,97
9.75833,96
9.76667,95
9.775,94
9.78333,93
9.79167,92
9.8,92
9.80833,92
9.81667,92
9.825,92
9.83333,91
9.84167,91
9.85,90
9.85833,88
9.86667,87
9.875,86
9.88333,85
9.89167,84
9.9,83
9.90833,83
9.91667,82
9.925,81
9.93333,80
9.94167,77
9.95,76
9.95833,76
9.96667,74
9.975,72
9.98333,70
9.99167,69
10.0,69
