R.Time (min),Intensity
0.0,-35
0.00833,-35
0.01667,0
0.025,-1
0.03333,-1
0.04167,-1
0.05,-1
0.05833,0
0.06667,0
0.075,-1
0.08333,-2
0.09167,-1
0.1,-1
0.10833,-1
0.11667,-2
0.125,-3
0.13333,-3
0.14167,-3
0.15,-4
0.15833,-4
0.16667,-5
0.175,-5
0.18333,-5
0.19167,-5
0.2,-6
0.20833,-7
0.21667,-7
0.225,-8
0.23333,-9
0.24167,-9
0.25,-8
0.25833,-8
0.26667,-8
0.275,-8
0.28333,-9
0.29167,-11
0.3,-11
0.30833,-12
0.31667,-13
0.325,-13
0.33333,-13
0.34167,-14
0.35,-14
0.35833,-15
0.36667,-14
0.375,-14
0.38333,-15
0.39167,-17
0.4,-17
0.40833,-16
0.41667,-14
0.425,-13
0.43333,-14
0.44167,-15
0.45,-15
0.45833,-15
0.46667,-14
0.475,-13
0.48333,-14
0.49167,-13
0.5,-14
0.50833,-15
0.51667,-16
0.525,-16
0.53333,-16
0.54167,-16
0.55,-16
0.55833,-16
0.56667,-16
0.575,-16
0.58333,-16
0.59167,-15
0.6,-15
0.60833,-16
0.61667,-17
0.625,-16
0.63333,-17
0.64167,-17
0.65,-17
0.65833,-17
0.66667,-16
0.675,-15
0.68333,-15
0.69167,-17
0.7,-17
0.70833,-18
0.71667,-18
0.725,-20
0.73333,-21
0.74167,-22
0.75,-23
0.75833,-22
0.76667,-22
0.775,-22
0.78333,-23
0.79167,-22
0.8,-22
0.80833,-22
0.81667,-23
0.825,-24
0.83333,-25
0.84167,-25
0.85,-25
0.85833,-26
0.86667,-27
0.875,-28
0.88333,-28
0.89167,-27
0.9,-27
0.90833,-28
0.91667,-29
0.925,-29
0.93333,-30
0.94167,-29
0.95,-29
0.95833,-29
0.96667,-29
0.975,-29
0.98333,-29
0.99167,-29
1.0,-30
1.00833,-30
1.01667,-30
1.025,-30
1.03333,-30
1.04167,-30
1.05,-30
1.05833,-30
1.06667,-31
1.075,-31
1.08333,-31
1.09167,-32
1.1,-32
1.10833,-32
1.11667,-31
1.125,-31
1.13333,-31
1.14167,-31
1.15,-31
1.15833,-31
1.16667,-30
1.175,-29
1.18333,-30
1.19167,-30
1.2,-30
1.20833,-31
1.21667,-30
1.225,-30
1.23333,-30
1.24167,-30
1.25,-31
1.25833,-31
1.26667,-32
1.275,-31
1.28333,-31
1.29167,-31
1.3,-31
1.30833,-31
1.31667,-32
1.325,-32
1.33333,-32
1.34167,-32
1.35,-31
1.35833,-31
1.36667,-31
1.375,-31
1.38333,-31
1.39167,-31
1.4,-30
1.40833,-29
1.41667,-29
1.425,-27
1.43333,-24
1.44167,-20
1.45,-15
1.45833,-10
1.46667,-5
1.475,2
1.48333,11
1.49167,23
1.5,38
1.50833,56
1.51667,77
1.525,104
1.53333,138
1.54167,181
1.55,236
1.55833,304
1.56667,388
1.575,495
1.58333,627
1.59167,790
1.6,989
1.60833,1230
1.61667,1520
1.625,1867
1.63333,2277
1.64167,2756
1.65,3310
1.65833,3939
1.66667,4645
1.675,5425
1.68333,6275
1.69167,7185
1.7,8144
1.70833,9135
1.71667,10142
1.725,11143
1.73333,12115
1.74167,13036
1.75,13885
1.75833,14642
1.76667,15290
1.775,15815
1.78333,16206
1.79167,16457
1.8,16566
1.80833,16534
1.81667,16365
1.825,16070
1.83333,15659
1.84167,15143
1.85,14537
1.85833,13856
1.86667,13114
1.875,12328
1.88333,11513
1.89167,10681
1.9,9845
1.90833,9018
1.91667,8211
1.925,7431
1.93333,6685
1.94167,5978
1.95,5316
1.95833,4699
1.96667,4132
1.975,3615
1.98333,3146
1.99167,2724
2.0,2348
2.00833,2014
2.01667,1721
2.025,1464
2.03333,1242
2.04167,1050
2.05,885
2.05833,744
2.06667,624
2.075,521
2.08333,434
2.09167,361
2.1,299
2.10833,248
2.11667,206
2.125,171
2.13333,142
2.14167,118
2.15,95
2.15833,76
2.16667,62
2.175,51
2.18333,41
2.19167,33
2.2,26
2.20833,19
2.21667,13
2.225,8
2.23333,4
2.24167,0
2.25,-3
2.25833,-6
2.26667,-8
2.275,-11
2.28333,-14
2.29167,-16
2.3,-18
2.30833,-19
2.31667,-21
2.325,-21
2.33333,-23
2.34167,-24
2.35,-24
2.35833,-25
2.36667,-26
2.375,-28
2.38333,-29
2.39167,-29
2.4,-28
2.40833,-28
2.41667,-29
2.425,-30
2.43333,-31
2.44167,-32
2.45,-32
2.45833,-33
2.46667,-34
2.475,-34
2.48333,-35
2.49167,-35
2.5,-35
2.50833,-36
2.51667,-36
2.525,-37
2.53333,-37
2.54167,-37
2.55,-36
2.55833,-37
2.56667,-37
2.575,-37
2.58333,-38
2.59167,-39
2.6,-39
2.60833,-39
2.61667,-39
2.625,-39
2.63333,-39
2.64167,-39
2.65,-38
2.65833,-38
2.66667,-38
2.675,-39
2.68333,-40
2.69167,-40
2.7,-40
2.70833,-40
2.71667,-41
2.725,-41
2.73333,-41
2.74167,-41
2.75,-42
2.75833,-43
2.76667,-43
2.775,-43
2.78333,-43
2.79167,-43
2.8,-44
2.80833,-44
2.81667,-44
2.825,-44
2.83333,-43
2.84167,-43
2.85,-44
2.85833,-44
2.86667,-43
2.875,-42
2.88333,-39
2.89167,-35
2.9,-29
2.90833,-20
2.91667,-8
2.925,6
2.93333,22
2.94167,37
2.95,52
2.95833,65
2.96667,78
2.975,89
2.98333,100
2.99167,110
3.0,121
3.00833,131
3.01667,141
3.025,151
3.03333,162
3.04167,174
3.05,187
3.05833,202
3.06667,220
3.075,243
3.08333,275
3.09167,322
3.1,389
3.10833,482
3.11667,601
3.125,738
3.13333,875
3.14167,996
3.15,1088
3.15833,1145
3.16667,1169
3.175,1165
3.18333,1138
3.19167,1096
3.2,1046
3.20833,995
3.21667,942
3.225,893
3.23333,846
3.24167,803
3.25,764
3.25833,728
3.26667,698
3.275,676
3.28333,665
3.29167,668
3.3,687
3.30833,718
3.31667,757
3.325,796
3.33333,829
3.34167,855
3.35,881
3.35833,924
3.36667,1011
3.375,1178
3.38333,1462
3.39167,1893
3.4,2492
3.40833,3287
3.41667,4325
3.425,5667
3.43333,7371
3.44167,9444
3.45,11819
3.45833,14339
3.46667,16777
3.475,18884
3.48333,20439
3.49167,21296
3.5,21404
3.50833,20818
3.51667,19673
3.525,18137
3.53333,16382
3.54167,14559
3.55,12780
3.55833,11120
3.56667,9628
3.575,8324
3.58333,7212
3.59167,6281
3.6,5509
3.60833,4873
3.61667,4344
3.625,3902
3.63333,3529
3.64167,3211
3.65,2935
3.65833,2695
3.66667,2487
3.675,2314
3.68333,2194
3.69167,2213
3.7,2655
3.70833,4326
3.71667,9116
3.725,20670
3.73333,44688
3.74167,88138
3.75,156965
3.75833,252858
3.76667,370760
3.775,498812
3.78333,621216
3.79167,722691
3.8,792435
3.80833,826113
3.81667,825609
3.825,797234
3.83333,749339
3.84167,690110
3.85,626018
3.85833,561181
3.86667,497649
3.875,436272
3.88333,377590
3.89167,322350
3.9,271511
3.90833,225984
3.91667,186365
3.925,152800
3.93333,125019
3.94167,102458
3.95,84401
3.95833,70095
3.96667,58840
3.975,50029
3.98333,43160
3.99167,37826
4.0,33694
4.00833,30485
4.01667,27962
4.025,25933
4.03333,24279
4.04167,22991
4.05,22300
4.05833,23006
4.06667,27298
4.075,40439
4.08333,73381
4.09167,144933
4.1,280324
4.10833,503210
4.11667,822678
4.125,1222140
4.13333,1658443
4.14167,2075249
4.15,2424173
4.15833,2677389
4.16667,2826257
4.175,2873369
4.18333,2827059
4.19167,2700227
4.2,2510129
4.20833,2276825
4.21667,2020440
4.225,1758780
4.23333,1505826
4.24167,1271301
4.25,1060959
4.25833,877289
4.26667,720368
4.275,588665
4.28333,479721
4.29167,390659
4.3,318524
4.30833,260515
4.31667,214105
4.325,177095
4.33333,147619
4.34167,124130
4.35,105369
4.35833,90325
4.36667,78195
4.375,68348
4.38333,60291
4.39167,53639
4.4,48099
4.40833,43440
4.41667,39487
4.425,36102
4.43333,33178
4.44167,30632
4.45,28399
4.45833,26427
4.46667,24675
4.475,23111
4.48333,21705
4.49167,20439
4.5,19291
4.50833,18247
4.51667,17295
4.525,16423
4.53333,15622
4.54167,14885
4.55,14205
4.55833,13575
4.56667,12992
4.575,12451
4.58333,11945
4.59167,11475
4.6,11039
4.60833,10632
4.61667,10258
4.625,9918
4.63333,9621
4.64167,9380
4.65,9219
4.65833,9177
4.66667,9322
4.675,9758
4.68333,10638
4.69167,12169
4.7,14612
4.70833,18268
4.71667,23438
4.725,30373
4.73333,39201
4.74167,49853
4.75,61998
4.75833,75025
4.76667,88066
4.775,100100
4.78333,110094
4.79167,117175
4.8,120764
4.80833,120660
4.81667,117047
4.825,110433
4.83333,101540
4.84167,91187
4.85,80164
4.85833,69157
4.86667,58694
4.875,49135
4.88333,40682
4.89167,33407
4.9,27287
4.90833,22238
4.91667,18141
4.925,14860
4.93333,12263
4.94167,10229
4.95,8648
4.95833,7423
4.96667,6476
4.975,5744
4.98333,5178
4.99167,4737
5.0,4392
5.00833,4116
5.01667,3892
5.025,3707
5.03333,3550
5.04167,3417
5.05,3299
5.05833,3197
5.06667,3106
5.075,3024
5.08333,2947
5.09167,2876
5.1,2810
5.10833,2749
5.11667,2693
5.125,2641
5.13333,2591
5.14167,2543
5.15,2497
5.15833,2453
5.16667,2411
5.175,2370
5.18333,2330
5.19167,2291
5.2,2254
5.20833,2218
5.21667,2185
5.225,2153
5.23333,2125
5.24167,2101
5.25,2084
5.25833,2076
5.26667,2079
5.275,2099
5.28333,2140
5.29167,2212
5.3,2326
5.30833,2503
5.31667,2779
5.325,3217
5.33333,3928
5.34167,5108
5.35,7091
5.35833,10427
5.36667,15976
5.375,25012
5.38333,39279
5.39167,60968
5.4,92523
5.40833,136224
5.41667,193611
5.425,264823
5.43333,348105
5.44167,439662
5.45,534000
5.45833,624657
5.46667,705170
5.475,769986
5.48333,815151
5.49167,838638
5.5,840341
5.50833,821814
5.51667,785843
5.525,735991
5.53333,676147
5.54167,610158
5.55,541544
5.55833,473309
5.56667,407842
5.575,346888
5.58333,291579
5.59167,242504
5.6,199811
5.60833,163311
5.61667,132580
5.625,107055
5.63333,86105
5.64167,69085
5.65,55381
5.65833,44434
5.66667,35746
5.675,28885
5.68333,23487
5.69167,19253
5.7,15934
5.70833,13333
5.71667,11292
5.725,9684
5.73333,8410
5.74167,7395
5.75,6579
5.75833,5918
5.76667,5377
5.775,4930
5.78333,4556
5.79167,4238
5.8,3966
5.80833,3729
5.81667,3522
5.825,3340
5.83333,3179
5.84167,3035
5.85,2906
5.85833,2791
5.86667,2689
5.875,2600
5.88333,2521
5.89167,2454
5.9,2397
5.90833,2348
5.91667,2304
5.925,2265
5.93333,2229
5.94167,2193
5.95,2157
5.95833,2117
5.96667,2073
5.975,2025
5.98333,1975
5.99167,1921
6.0,1866
6.00833,1809
6.01667,1753
6.025,1698
6.03333,1644
6.04167,1596
6.05,1550
6.05833,1508
6.06667,1468
6.075,1430
6.08333,1395
6.09167,1362
6.1,1332
6.10833,1305
6.11667,1278
6.125,1253
6.13333,1230
6.14167,1207
6.15,1185
6.15833,1164
6.16667,1144
6.175,1125
6.18333,1106
6.19167,1088
6.2,1070
6.20833,1053
6.21667,1037
6.225,1022
6.23333,1007
6.24167,993
6.25,979
6.25833,965
6.26667,951
6.275,938
6.28333,925
6.29167,914
6.3,902
6.30833,891
6.31667,880
6.325,870
6.33333,860
6.34167,850
6.35,841
6.35833,833
6.36667,825
6.375,818
6.38333,810
6.39167,802
6.4,796
6.40833,790
6.41667,785
6.425,780
6.43333,777
6.44167,775
6.45,774
6.45833,774
6.46667,775
6.475,776
6.48333,777
6.49167,777
6.5,776
6.50833,774
6.51667,772
6.525,768
6.53333,764
6.54167,757
6.55,748
6.55833,738
6.56667,728
6.575,717
6.58333,705
6.59167,695
6.6,685
6.60833,677
6.61667,669
6.625,662
6.63333,657
6.64167,654
6.65,652
6.65833,651
6.66667,653
6.675,658
6.68333,663
6.69167,668
6.7,675
6.70833,683
6.71667,692
6.725,701
6.73333,710
6.74167,719
6.75,729
6.75833,737
6.76667,744
6.775,750
6.78333,755
6.79167,760
6.8,763
6.80833,766
6.81667,767
6.825,768
6.83333,768
6.84167,767
6.85,766
6.85833,765
6.86667,764
6.875,763
6.88333,762
6.89167,759
6.9,756
6.90833,754
6.91667,750
6.925,745
6.93333,739
6.94167,733
6.95,726
6.95833,717
6.96667,708
6.975,697
6.98333,686
6.99167,674
7.0,661
7.00833,646
7.01667,633
7.025,619
7.03333,604
7.04167,591
7.05,578
7.05833,565
7.06667,552
7.075,537
7.08333,522
7.09167,509
7.1,497
7.10833,485
7.11667,473
7.125,462
7.13333,451
7.14167,441
7.15,432
7.15833,422
7.16667,413
7.175,404
7.18333,395
7.19167,388
7.2,381
7.20833,374
7.21667,368
7.225,362
7.23333,356
7.24167,351
7.25,347
7.25833,343
7.26667,338
7.275,332
7.28333,327
7.29167,323
7.3,319
7.30833,315
7.31667,312
7.325,309
7.33333,305
7.34167,301
7.35,297
7.35833,295
7.36667,293
7.375,290
7.38333,288
7.39167,285
7.4,282
7.40833,279
7.41667,277
7.425,275
7.43333,272
7.44167,271
7.45,269
7.45833,267
7.46667,264
7.475,261
7.48333,259
7.49167,257
7.5,256
7.50833,255
7.51667,254
7.525,252
7.53333,251
7.54167,250
7.55,247
7.55833,245
7.56667,244
7.575,242
7.58333,240
7.59167,238
7.6,237
7.60833,237
7.61667,235
7.625,234
7.63333,233
7.64167,232
7.65,230
7.65833,229
7.66667,227
7.675,226
7.68333,225
7.69167,224
7.7,222
7.70833,221
7.71667,219
7.725,217
7.73333,214
7.74167,212
7.75,211
7.75833,208
7.76667,207
7.775,206
7.78333,205
7.79167,204
7.8,203
7.80833,202
7.81667,199
7.825,198
7.83333,197
7.84167,195
7.85,194
7.85833,193
7.86667,192
7.875,190
7.88333,188
7.89167,186
7.9,184
7.90833,183
7.91667,182
7.925,182
7.93333,181
7.94167,180
7.95,179
7.95833,177
7.96667,177
7.975,177
7.98333,177
7.99167,176
8.0,174
8.00833,173
8.01667,171
8.025,169
8.03333,167
8.04167,166
8.05,166
8.05833,166
8.06667,165
8.075,164
8.08333,163
8.09167,163
8.1,163
8.10833,163
8.11667,163
8.125,163
8.13333,162
8.14167,161
8.15,160
8.15833,158
8.16667,158
8.175,158
8.18333,158
8.19167,157
8.2,156
8.20833,157
8.21667,157
8.225,155
8.23333,153
8.24167,151
8.25,150
8.25833,148
8.26667,147
8.275,146
8.28333,145
8.29167,144
8.3,141
8.30833,140
8.31667,138
8.325,137
8.33333,135
8.34167,134
8.35,132
8.35833,131
8.36667,130
8.375,129
8.38333,127
8.39167,126
8.4,125
8.40833,124
8.41667,124
8.425,125
8.43333,124
8.44167,124
8.45,123
8.45833,122
8.46667,120
8.475,119
8.48333,118
8.49167,117
8.5,116
8.50833,115
8.51667,115
8.525,114
8.53333,114
8.54167,114
8.55,114
8.55833,113
8.56667,111
8.575,110
8.58333,110
8.59167,109
8.6,109
8.60833,108
8.61667,106
8.625,107
8.63333,108
8.64167,108
8.65,106
8.65833,105
8.66667,105
8.675,104
8.68333,104
8.69167,103
8.7,102
8.70833,101
8.71667,101
8.725,101
8.73333,99
8.74167,98
8.75,96
8.75833,96
8.76667,96
8.775,96
8.78333,96
8.79167,95
8.8,95
8.80833,95
8.81667,96
8.825,97
8.83333,97
8.84167,97
8.85,97
8.85833,96
8.86667,96
8.875,95
8.88333,95
8.89167,96
8.9,96
8.90833,96
8.91667,96
8.925,95
8.93333,93
8.94167,92
8.95,91
8.95833,89
8.96667,89
8.975,88
8.98333,88
8.99167,86
9.0,85
9.00833,84
9.01667,83
9.025,82
9.03333,81
9.04167,79
9.05,78
9.05833,77
9.06667,77
9.075,76
9.08333,74
9.09167,74
9.1,73
9.10833,73
9.11667,72
9.125,72
9.13333,72
9.14167,71
9.15,71
9.15833,70
9.16667,70
9.175,71
9.18333,71
9.19167,70
9.2,70
9.20833,70
9.21667,70
9.225,69
9.23333,68
9.24167,68
9.25,68
9.25833,67
9.26667,66
9.275,65
9.28333,64
9.29167,64
9.3,64
9.30833,63
9.31667,63
9.325,63
9.33333,63
9.34167,62
9.35,63
9.35833,63
9.36667,64
9.375,64
9.38333,65
9.39167,65
9.4,65
9.40833,65
9.41667,66
9.425,65
9.43333,65
9.44167,66
9.45,66
9.45833,66
9.46667,65
9.475,64
9.48333,64
9.49167,64
9.5,63
9.50833,63
9.51667,62
9.525,60
9.53333,58
9.54167,57
9.55,56
9.55833,56
9.56667,55
9.575,54
9.58333,52
9.59167,52
9.6,52
9.60833,52
9.61667,51
9.625,50
9.63333,48
9.64167,46
9.65,46
9.65833,46
9.66667,46
9.675,45
9.68333,45
9.69167,45
9.7,44
9.70833,43
9.71667,42
9.725,42
9.73333,42
9.74167,41
9.75,40
9.75833,40
9.76667,39
9.775,39
9.78333,38
9.79167,38
9.8,38
9.80833,37
9.81667,37
9.825,36
9.83333,36
9.84167,37
9.85,37
9.85833,37
9.86667,37
9.875,36
9.88333,35
9.89167,33
9.9,33
9.90833,33
9.91667,33
9.925,34
9.93333,34
9.94167,34
9.95,34
9.95833,34
9.96667,34
9.975,34
9.98333,34
9.99167,34
10.0,36
